0   1.16470588235294E+0000
1   1.33215555601100E+0000
2   1.48448086144036E+0000
3   1.62097908542276E+0000
4   1.73082237579464E+0000
5   1.79411764705882E+0000
6   1.82141061108876E+0000
7   1.81509673248159E+0000
8   1.78212792026389E+0000
9   1.72039085012865E+0000
10   1.64352941176471E+0000
11   1.57960914987135E+0000
12   1.54375443267729E+0000
13   1.53666797340077E+0000
14   1.58211880067595E+0000
15   1.68705882352941E+0000
16   1.84094233008771E+0000
17   2.04137385575371E+0000
18   2.29434266797141E+0000
19   2.55019738516547E+0000
20   2.82117647058824E+0000
21   3.09215555601100E+0000
22   3.32212792026389E+0000
23   3.51039085012865E+0000
24   3.64611649344170E+0000
25   3.69647058823529E+0000
26   3.65905766991229E+0000
27   3.54921437954041E+0000
28   3.36095144967565E+0000
29   3.11803790895218E+0000
30   2.80823529411765E+0000
31   2.47255032634194E+0000
32   2.15198972679494E+0000
33   1.84725620869488E+0000
34   1.58211880067595E+0000
35   1.35058823529412E+0000
36   1.18094233008771E+0000
37   1.07078562045959E+0000
38   1.01316619738317E+0000
39   9.84315032224286E-0001
40   9.96470588235294E-0001
41   1.02156732071689E+0000
42   1.04448086144035E+0000
43   1.03862614424630E+0000
44   1.00611649344169E+0000
45   9.52941176470588E-0001
46   8.76704728735812E-0001
47   7.66861438363945E-0001
48   6.30363214381531E-0001
49   4.78037908952180E-0001
50   3.10588235294118E-0001
51   1.69020914577232E-0001
52   4.25779620890574E-0002
53  -5.50967324815917E-0002
54  -1.13175316971105E-0001
55  -1.11764705882353E-0001
56  -7.43517875593418E-0002
57  -3.33202659923871E-0003
58   1.07283844441998E-0001
59   2.46667973400761E-0001
60   4.14117647058824E-0001
61   5.68626144246298E-0001
62   7.08010273205061E-0001
63   8.31567320716886E-0001
64   9.15528258147577E-0001
65   9.78823529411765E-0001
66   9.80234140500518E-0001
67   9.60979085422768E-0001
68   9.15069096734472E-0001
69   8.40390850128650E-0001
70   7.50588235294118E-0001
71   6.60785620459585E-0001
72   5.86107373853763E-0001
73   5.27256208694879E-0001
74   5.20942330087717E-0001
75   5.35294117647060E-0001
76   6.11530565381833E-0001
77   7.08432679283116E-0001
78   8.44930903265523E-0001
79   9.97256208694876E-0001
80   1.15176470588235E+0000
81   1.31921437954041E+0000
82   1.45859850849918E+0000
83   1.56921437954041E+0000
84   1.64023414050052E+0000
85   1.66470588235294E+0000
86   1.64023414050052E+0000
87   1.58215555601100E+0000
88   1.48448086144036E+0000
89   1.35803790895218E+0000
90   1.21647058823529E+0000
91   1.07490326751841E+0000
92   9.48460315030233E-0001
93   8.50785620459586E-0001
94   7.79765859499483E-0001
95   7.55294117647060E-0001
96   7.92707035970073E-0001
97   8.50785620459586E-0001
98   9.61401491500823E-0001
99   1.08784444398900E+0000
100   1.22941176470588E+0000
101   1.37097908542276E+0000
102   1.49742203791095E+0000
103   1.58215555601100E+0000
104   1.65317531697111E+0000
105   1.66470588235294E+0000
106   1.64023414050052E+0000
107   1.58215555601100E+0000
108   1.48448086144036E+0000
109   1.35803790895218E+0000
110   1.21647058823529E+0000
111   1.08784444398900E+0000
112   9.61401491500823E-0001
113   8.63726796930176E-0001
114   8.05648212440663E-0001
115   7.94117647058820E-0001
116   8.31530565381833E-0001
117   9.02550326341936E-0001
118   1.01316619738317E+0000
119   1.15255032634194E+0000
120   1.30705882352941E+0000
121   1.46156732071688E+0000
122   1.60095144967565E+0000
123   1.71156732071688E+0000
124   1.78258708167699E+0000
125   1.79411764705882E+0000
126   1.76964590520640E+0000
127   1.71156732071688E+0000
128   1.60095144967565E+0000
129   1.47450849718747E+0000
130   1.32000000000000E+0000
131   1.17843267928312E+0000
132   1.03904855032435E+0000
133   9.41373855753706E-0001
134   8.83295271264183E-0001
135   8.58823529411760E-0001
136   8.83295271264183E-0001
137   9.54315032224286E-0001
138   1.05198972679494E+0000
139   1.17843267928312E+0000
140   1.33294117647059E+0000
141   1.47450849718747E+0000
142   1.60095144967565E+0000
143   1.71156732071688E+0000
144   1.76964590520640E+0000
145   1.79411764705882E+0000
146   1.76964590520640E+0000
147   1.71156732071688E+0000
148   1.60095144967565E+0000
149   1.47450849718747E+0000
150   1.33294117647059E+0000
151   1.19137385575371E+0000
152   1.06493090326552E+0000
153   9.54315032224286E-0001
154   9.09177624205363E-0001
155   8.84705882352940E-0001
156   9.22118800675953E-0001
157   9.93138561636056E-0001
158   1.10375443267729E+0000
159   1.23019738516547E+0000
160   1.38470588235294E+0000
161   1.53921437954041E+0000
162   1.67859850849918E+0000
163   1.77627320306982E+0000
164   1.84729296402993E+0000
165   1.87176470588235E+0000
166   1.84729296402993E+0000
167   1.77627320306982E+0000
168   1.67859850849918E+0000
169   1.53921437954041E+0000
170   1.39764705882353E+0000
171   1.24313856163606E+0000
172   1.10375443267729E+0000
173   1.00607973810665E+0000
174   9.35059977146543E-0001
175   9.23529411764710E-0001
176   9.48001153617133E-0001
177   1.01902091457724E+0000
178   1.14257796208905E+0000
179   1.26902091457724E+0000
180   1.43647058823529E+0000
181   1.59097908542276E+0000
182   1.71742203791095E+0000
183   1.82803790895218E+0000
184   1.89905766991229E+0000
185   1.92352941176471E+0000
186   1.89905766991229E+0000
187   1.82803790895218E+0000
188   1.73036321438153E+0000
189   1.59097908542276E+0000
190   1.44941176470588E+0000
191   1.30784444398900E+0000
192   1.18140149150082E+0000
193   1.08372679693018E+0000
194   1.02564821244066E+0000
195   1.00117647058824E+0000
196   1.03858938891124E+0000
197   1.10960914987135E+0000
198   1.22022502091258E+0000
199   1.34666797340077E+0000
200   1.50117647058824E+0000
201   1.66862614424629E+0000
202   1.80801027320506E+0000
203   1.91862614424629E+0000
204   1.98964590520640E+0000
205   2.01411764705882E+0000
206   1.98964590520640E+0000
207   1.91862614424629E+0000
208   1.80801027320506E+0000
209   1.68156732071688E+0000
210   1.52705882352941E+0000
211   1.38549150281253E+0000
212   1.25904855032435E+0000
213   1.16137385575371E+0000
214   1.10329527126418E+0000
215   1.07882352941176E+0000
216   1.11623644773477E+0000
217   1.18725620869488E+0000
218   1.28493090326552E+0000
219   1.42431503222429E+0000
220   1.57882352941176E+0000
221   1.73333202659923E+0000
222   1.87271615555800E+0000
223   1.98333202659923E+0000
224   2.05435178755934E+0000
225   2.07882352941176E+0000
226   2.04141061108876E+0000
227   1.98333202659923E+0000
228   1.88565733202859E+0000
229   1.75921437954041E+0000
230   1.60470588235294E+0000
231   1.46313856163606E+0000
232   1.32375443267729E+0000
233   1.22607973810665E+0000
234   1.16800115361713E+0000
235   1.15647058823529E+0000
236   1.18094233008771E+0000
237   1.25196209104782E+0000
238   1.36257796208905E+0000
239   1.48902091457724E+0000
240   1.63058823529412E+0000
241   1.78509673248159E+0000
242   1.92448086144036E+0000
243   2.03509673248159E+0000
244   2.09317531697111E+0000
245   2.13058823529412E+0000
246   2.10611649344170E+0000
247   2.03509673248159E+0000
248   1.93742203791095E+0000
249   1.79803790895218E+0000
250   1.65647058823529E+0000
251   1.50196209104782E+0000
252   1.37551913855964E+0000
253   1.26490326751841E+0000
254   1.20682468302889E+0000
255   1.19529411764706E+0000
256   1.21976585949948E+0000
257   1.27784444398900E+0000
258   1.38846031503023E+0000
259   1.51490326751841E+0000
260   1.65647058823529E+0000
261   1.79803790895218E+0000
262   1.92448086144036E+0000
263   2.04803790895218E+0000
264   2.10611649344170E+0000
265   2.11764705882353E+0000
266   2.09317531697111E+0000
267   2.02215555601100E+0000
268   1.89859850849918E+0000
269   1.77215555601100E+0000
270   1.61764705882353E+0000
271   1.46313856163606E+0000
272   1.32375443267729E+0000
273   1.22607973810665E+0000
274   1.15505997714654E+0000
275   1.13058823529412E+0000
276   1.15505997714654E+0000
277   1.22607973810665E+0000
278   1.32375443267729E+0000
279   1.45019738516547E+0000
280   1.59176470588235E+0000
281   1.73333202659923E+0000
282   1.85977497908742E+0000
283   1.97039085012865E+0000
284   2.02846943461817E+0000
285   2.04000000000000E+0000
286   2.00258708167699E+0000
287   1.93156732071688E+0000
288   1.82095144967565E+0000
289   1.68156732071688E+0000
290   1.52705882352941E+0000
291   1.37255032634194E+0000
292   1.23316619738317E+0000
293   1.12255032634194E+0000
294   1.05153056538183E+0000
295   1.02705882352941E+0000
296   1.05153056538183E+0000
297   1.10960914987135E+0000
298   1.20728384444200E+0000
299   1.34666797340077E+0000
300   1.47529411764706E+0000
301   1.62980261483453E+0000
302   1.75624556732271E+0000
303   1.86686143836394E+0000
304   1.91199884638287E+0000
305   1.93647058823529E+0000
306   1.89905766991229E+0000
307   1.82803790895218E+0000
308   1.71742203791095E+0000
309   1.57803790895218E+0000
310   1.42352941176471E+0000
311   1.25607973810665E+0000
312   1.11669560914788E+0000
313   1.00607973810665E+0000
314   9.35059977146543E-0001
315   9.10588235294120E-0001
316   9.48001153617133E-0001
317   1.00607973810665E+0000
318   1.11669560914788E+0000
319   1.24313856163606E+0000
320   1.38470588235294E+0000
321   1.52627320306982E+0000
322   1.66565733202859E+0000
323   1.76333202659923E+0000
324   1.82141061108876E+0000
325   1.83294117647059E+0000
326   1.80846943461817E+0000
327   1.73744967365806E+0000
328   1.62683380261683E+0000
329   1.48744967365806E+0000
330   1.33294117647059E+0000
331   1.19137385575371E+0000
332   1.03904855032435E+0000
333   9.28432679283116E-0001
334   8.70354094793603E-0001
335   8.45882352941180E-0001
336   8.70354094793603E-0001
337   9.41373855753706E-0001
338   1.05198972679494E+0000
339   1.17843267928312E+0000
340   1.32000000000000E+0000
341   1.47450849718747E+0000
342   1.60095144967565E+0000
343   1.69862614424629E+0000
344   1.75670472873582E+0000
345   1.78117647058824E+0000
346   1.74376355226523E+0000
347   1.67274379130512E+0000
348   1.56212792026389E+0000
349   1.42274379130512E+0000
350   1.26823529411765E+0000
351   1.12666797340077E+0000
352   9.87283844442003E-0001
353   8.76667973400766E-0001
354   8.18589388911243E-0001
355   7.94117647058820E-0001
356   8.31530565381833E-0001
357   9.02550326341936E-0001
358   1.01316619738317E+0000
359   1.15255032634194E+0000
360   1.30705882352941E+0000
361   1.44862614424629E+0000
362   1.58801027320506E+0000
363   1.68568496777571E+0000
364   1.75670472873582E+0000
365   1.76823529411765E+0000
366   1.74376355226523E+0000
367   1.67274379130512E+0000
368   1.56212792026389E+0000
369   1.43568496777571E+0000
370   1.28117647058824E+0000
371   1.12666797340077E+0000
372   9.87283844442003E-0001
373   8.76667973400766E-0001
374   8.18589388911243E-0001
375   7.94117647058820E-0001
376   8.18589388911243E-0001
377   8.89609149871346E-0001
378   1.00022502091258E+0000
379   1.12666797340077E+0000
380   1.28117647058824E+0000
381   1.43568496777571E+0000
382   1.56212792026389E+0000
383   1.67274379130512E+0000
384   1.74376355226523E+0000
385   1.75529411764706E+0000
386   1.73082237579464E+0000
387   1.65980261483453E+0000
388   1.56212792026389E+0000
389   1.42274379130512E+0000
390   1.28117647058824E+0000
391   1.12666797340077E+0000
392   9.87283844442003E-0001
393   8.89609149871346E-0001
394   8.18589388911243E-0001
395   7.94117647058820E-0001
396   8.18589388911243E-0001
397   8.76667973400766E-0001
398   9.87283844442003E-0001
399   1.11372679693018E+0000
400   1.26823529411765E+0000
401   1.40980261483453E+0000
402   1.54918674379330E+0000
403   1.65980261483453E+0000
404   1.71788119932405E+0000
405   1.74235294117647E+0000
406   1.71788119932405E+0000
407   1.64686143836394E+0000
408   1.54918674379330E+0000
409   1.40980261483453E+0000
410   1.26823529411765E+0000
411   1.12666797340077E+0000
412   9.87283844442003E-0001
413   8.76667973400766E-0001
414   8.18589388911243E-0001
415   7.94117647058820E-0001
416   8.18589388911243E-0001
417   8.89609149871346E-0001
418   9.87283844442003E-0001
419   1.12666797340077E+0000
420   1.26823529411765E+0000
421   1.42274379130512E+0000
422   1.54918674379330E+0000
423   1.65980261483453E+0000
424   1.71788119932405E+0000
425   1.74235294117647E+0000
426   1.71788119932405E+0000
427   1.64686143836394E+0000
428   1.53624556732271E+0000
429   1.40980261483453E+0000
430   1.26823529411765E+0000
431   1.11372679693018E+0000
432   9.87283844442003E-0001
433   8.76667973400766E-0001
434   8.18589388911243E-0001
435   7.94117647058820E-0001
436   8.18589388911243E-0001
437   8.89609149871346E-0001
438   9.87283844442003E-0001
439   1.12666797340077E+0000
440   1.26823529411765E+0000
441   1.42274379130512E+0000
442   1.54918674379330E+0000
443   1.65980261483453E+0000
444   1.73082237579464E+0000
445   1.74235294117647E+0000
446   1.71788119932405E+0000
447   1.64686143836394E+0000
448   1.53624556732271E+0000
449   1.39686143836394E+0000
450   1.25529411764706E+0000
451   1.10078562045959E+0000
452   9.61401491500823E-0001
453   8.63726796930176E-0001
454   8.05648212440663E-0001
455   7.81176470588240E-0001
456   8.18589388911243E-0001
457   8.89609149871346E-0001
458   1.00022502091258E+0000
459   1.12666797340077E+0000
460   1.28117647058824E+0000
461   1.43568496777571E+0000
462   1.56212792026389E+0000
463   1.65980261483453E+0000
464   1.73082237579464E+0000
465   1.74235294117647E+0000
466   1.71788119932405E+0000
467   1.64686143836394E+0000
468   1.53624556732271E+0000
469   1.40980261483453E+0000
470   1.25529411764706E+0000
471   1.10078562045959E+0000
472   9.74342667971413E-0001
473   8.63726796930176E-0001
474   7.92707035970073E-0001
475   7.68235294117650E-0001
476   8.05648212440663E-0001
477   8.76667973400766E-0001
478   9.87283844442003E-0001
479   1.12666797340077E+0000
480   1.28117647058824E+0000
481   1.43568496777571E+0000
482   1.56212792026389E+0000
483   1.67274379130512E+0000
484   1.74376355226523E+0000
485   1.75529411764706E+0000
486   1.71788119932405E+0000
487   1.64686143836394E+0000
488   1.53624556732271E+0000
489   1.40980261483453E+0000
490   1.25529411764706E+0000
491   1.10078562045959E+0000
492   9.74342667971413E-0001
493   8.63726796930176E-0001
494   7.92707035970073E-0001
495   7.81176470588240E-0001
496   8.05648212440663E-0001
497   8.76667973400766E-0001
498   9.74342667971413E-0001
499   1.11372679693018E+0000
500   1.26823529411765E+0000
501   1.40980261483453E+0000
502   1.54918674379330E+0000
503   1.65980261483453E+0000
504   1.71788119932405E+0000
505   1.74235294117647E+0000
506   1.70494002285346E+0000
507   1.64686143836394E+0000
508   1.53624556732271E+0000
509   1.39686143836394E+0000
510   1.25529411764706E+0000
511   1.10078562045959E+0000
512   9.74342667971413E-0001
513   8.63726796930176E-0001
514   8.05648212440663E-0001
515   7.81176470588240E-0001
516   8.18589388911243E-0001
517   8.89609149871346E-0001
518   9.87283844442003E-0001
519   1.11372679693018E+0000
520   1.26823529411765E+0000
521   1.42274379130512E+0000
522   1.54918674379330E+0000
523   1.65980261483453E+0000
524   1.73082237579464E+0000
525   1.74235294117647E+0000
526   1.70494002285346E+0000
527   1.64686143836394E+0000
528   1.53624556732271E+0000
529   1.39686143836394E+0000
530   1.25529411764706E+0000
531   1.10078562045959E+0000
532   9.61401491500823E-0001
533   8.63726796930176E-0001
534   7.92707035970073E-0001
535   7.81176470588240E-0001
536   8.05648212440663E-0001
537   8.76667973400766E-0001
538   9.87283844442003E-0001
539   1.11372679693018E+0000
540   1.25529411764706E+0000
541   1.40980261483453E+0000
542   1.53624556732271E+0000
543   1.64686143836394E+0000
544   1.70494002285346E+0000
545   1.72941176470588E+0000
546   1.70494002285346E+0000
547   1.62097908542276E+0000
548   1.51036321438153E+0000
549   1.38392026189335E+0000
550   1.22941176470588E+0000
551   1.07490326751841E+0000
552   9.35519138559643E-0001
553   8.24903267518406E-0001
554   7.66824683028893E-0001
555   7.42352941176470E-0001
556   7.79765859499483E-0001
557   8.63726796930176E-0001
558   9.61401491500823E-0001
559   1.10078562045959E+0000
560   1.25529411764706E+0000
561   1.40980261483453E+0000
562   1.53624556732271E+0000
563   1.64686143836394E+0000
564   1.70494002285346E+0000
565   1.72941176470588E+0000
566   1.69199884638287E+0000
567   1.60803790895218E+0000
568   1.49742203791095E+0000
569   1.37097908542276E+0000
570   1.22941176470588E+0000
571   1.07490326751841E+0000
572   9.48460315030233E-0001
573   8.37844443988996E-0001
574   7.79765859499483E-0001
575   7.55294117647060E-0001
576   7.92707035970073E-0001
577   8.63726796930176E-0001
578   9.61401491500823E-0001
579   1.10078562045959E+0000
580   1.24235294117647E+0000
581   1.39686143836394E+0000
582   1.52330439085212E+0000
583   1.63392026189335E+0000
584   1.70494002285346E+0000
585   1.72941176470588E+0000
586   1.70494002285346E+0000
587   1.62097908542276E+0000
588   1.51036321438153E+0000
589   1.38392026189335E+0000
590   1.22941176470588E+0000
591   1.08784444398900E+0000
592   9.48460315030233E-0001
593   8.50785620459586E-0001
594   7.79765859499483E-0001
595   7.68235294117650E-0001
596   7.92707035970073E-0001
597   8.63726796930176E-0001
598   9.61401491500823E-0001
599   1.08784444398900E+0000
600   1.24235294117647E+0000
601   1.38392026189335E+0000
602   1.52330439085212E+0000
603   1.63392026189335E+0000
604   1.70494002285346E+0000
605   1.72941176470588E+0000
606   1.69199884638287E+0000
607   1.63392026189335E+0000
608   1.52330439085212E+0000
609   1.37097908542276E+0000
610   1.22941176470588E+0000
611   1.07490326751841E+0000
612   9.35519138559643E-0001
613   8.24903267518406E-0001
614   7.66824683028893E-0001
615   7.42352941176470E-0001
616   7.66824683028893E-0001
617   8.50785620459586E-0001
618   9.48460315030233E-0001
619   1.08784444398900E+0000
620   1.24235294117647E+0000
621   1.38392026189335E+0000
622   1.52330439085212E+0000
623   1.63392026189335E+0000
624   1.70494002285346E+0000
625   1.72941176470588E+0000
626   1.69199884638287E+0000
627   1.62097908542276E+0000
628   1.52330439085212E+0000
629   1.38392026189335E+0000
630   1.24235294117647E+0000
631   1.08784444398900E+0000
632   9.61401491500823E-0001
633   8.50785620459586E-0001
634   7.92707035970073E-0001
635   7.81176470588240E-0001
636   8.05648212440663E-0001
637   8.76667973400766E-0001
638   1.00022502091258E+0000
639   1.12666797340077E+0000
640   1.28117647058824E+0000
641   1.42274379130512E+0000
642   1.56212792026389E+0000
643   1.67274379130512E+0000
644   1.73082237579464E+0000
645   1.75529411764706E+0000
646   1.71788119932405E+0000
647   1.64686143836394E+0000
648   1.53624556732271E+0000
649   1.40980261483453E+0000
650   1.25529411764706E+0000
651   1.11372679693018E+0000
652   9.87283844442003E-0001
653   8.76667973400766E-0001
654   8.18589388911243E-0001
655   8.07058823529410E-0001
656   8.44471741852423E-0001
657   9.15491502812526E-0001
658   1.02610737385376E+0000
659   1.16549150281253E+0000
660   1.32000000000000E+0000
661   1.47450849718747E+0000
662   1.61389262614624E+0000
663   1.72450849718747E+0000
664   1.79552825814758E+0000
665   1.82000000000000E+0000
666   1.79552825814758E+0000
667   1.72450849718747E+0000
668   1.62683380261683E+0000
669   1.50039085012865E+0000
670   1.35882352941176E+0000
671   1.21725620869488E+0000
672   1.10375443267729E+0000
673   1.00607973810665E+0000
674   9.48001153617133E-0001
675   9.36470588235290E-0001
676   9.73883506558303E-0001
677   1.05784444398900E+0000
678   1.16846031503023E+0000
679   1.29490326751841E+0000
680   1.43647058823529E+0000
681   1.59097908542276E+0000
682   1.71742203791095E+0000
683   1.82803790895218E+0000
684   1.88611649344170E+0000
685   1.91058823529412E+0000
686   1.88611649344170E+0000
687   1.82803790895218E+0000
688   1.71742203791095E+0000
689   1.59097908542276E+0000
690   1.44941176470588E+0000
691   1.30784444398900E+0000
692   1.18140149150082E+0000
693   1.07078562045959E+0000
694   9.99765859499483E-0001
695   9.88235294117650E-0001
696   1.01270703597007E+0000
697   1.08372679693018E+0000
698   1.18140149150082E+0000
699   1.32078562045959E+0000
700   1.46235294117647E+0000
701   1.61686143836394E+0000
702   1.74330439085212E+0000
703   1.84097908542276E+0000
704   1.91199884638287E+0000
705   1.92352941176471E+0000
706   1.88611649344170E+0000
707   1.80215555601100E+0000
708   1.67859850849918E+0000
709   1.53921437954041E+0000
710   1.38470588235294E+0000
711   1.23019738516547E+0000
712   1.09081325620670E+0000
713   9.80197385165466E-0001
714   8.96236447734773E-0001
715   8.71764705882350E-0001
716   8.96236447734773E-0001
717   9.54315032224286E-0001
718   1.05198972679494E+0000
719   1.17843267928312E+0000
720   1.32000000000000E+0000
721   1.46156732071688E+0000
722   1.58801027320506E+0000
723   1.68568496777571E+0000
724   1.74376355226523E+0000
725   1.74235294117647E+0000
726   1.71788119932405E+0000
727   1.63392026189335E+0000
728   1.52330439085212E+0000
729   1.38392026189335E+0000
730   1.22941176470588E+0000
731   1.07490326751841E+0000
732   9.35519138559643E-0001
733   8.37844443988996E-0001
734   7.66824683028893E-0001
735   7.55294117647060E-0001
736   7.79765859499483E-0001
737   8.63726796930176E-0001
738   9.61401491500823E-0001
739   1.10078562045959E+0000
740   1.24235294117647E+0000
741   1.38392026189335E+0000
742   1.52330439085212E+0000
743   1.62097908542276E+0000
744   1.69199884638287E+0000
745   1.70352941176471E+0000
746   1.67905766991229E+0000
747   1.59509673248159E+0000
748   1.47153968496977E+0000
749   1.34509673248159E+0000
750   1.19058823529412E+0000
751   1.04902091457724E+0000
752   9.09636785618473E-0001
753   7.99020914577236E-0001
754   7.28001153617133E-0001
755   7.03529411764710E-0001
756   7.40942330087713E-0001
757   8.24903267518406E-0001
758   9.35519138559643E-0001
759   1.07490326751841E+0000
760   1.24235294117647E+0000
761   1.39686143836394E+0000
762   1.52330439085212E+0000
763   1.63392026189335E+0000
764   1.69199884638287E+0000
765   1.71647058823529E+0000
766   1.67905766991229E+0000
767   1.60803790895218E+0000
768   1.49742203791095E+0000
769   1.35803790895218E+0000
770   1.21647058823529E+0000
771   1.06196209104782E+0000
772   9.22577962089053E-0001
773   7.99020914577236E-0001
774   7.28001153617133E-0001
775   7.16470588235290E-0001
776   7.40942330087713E-0001
777   8.24903267518406E-0001
778   9.35519138559643E-0001
779   1.07490326751841E+0000
780   1.21647058823529E+0000
781   1.35803790895218E+0000
782   1.49742203791095E+0000
783   1.59509673248159E+0000
784   1.66611649344170E+0000
785   1.67764705882353E+0000
786   1.64023414050052E+0000
787   1.56921437954041E+0000
788   1.47153968496977E+0000
789   1.33215555601100E+0000
790   1.17764705882353E+0000
791   1.03607973810665E+0000
792   8.96695609147883E-0001
793   7.86079738106646E-0001
794   7.28001153617133E-0001
795   7.03529411764710E-0001
796   7.40942330087713E-0001
797   8.11962091047816E-0001
798   9.09636785618473E-0001
799   1.03607973810665E+0000
800   1.19058823529412E+0000
801   1.33215555601100E+0000
802   1.45859850849918E+0000
803   1.55627320306982E+0000
804   1.62729296402993E+0000
805   1.65176470588235E+0000
806   1.62729296402993E+0000
807   1.56921437954041E+0000
808   1.48448086144036E+0000
809   1.38392026189335E+0000
810   1.29411764705882E+0000
811   1.19137385575371E+0000
812   1.11669560914788E+0000
813   1.07078562045959E+0000
814   1.06447174185242E+0000
815   1.11764705882353E+0000
816   1.23270703597007E+0000
817   1.39431503222429E+0000
818   1.60846031503023E+0000
819   1.85137385575371E+0000
820   2.10941176470588E+0000
821   2.39333202659923E+0000
822   2.64918674379330E+0000
823   2.88921437954041E+0000
824   3.08964590520640E+0000
825   3.23058823529412E+0000
826   3.30964590520640E+0000
827   3.34215555601100E+0000
828   3.30918674379330E+0000
829   3.23450849718747E+0000
830   3.10588235294118E+0000
831   2.93843267928312E+0000
832   2.76022502091258E+0000
833   2.55902091457724E+0000
834   2.35858938891124E+0000
835   2.17882352941176E+0000
836   2.03505997714654E+0000
837   1.92490326751841E+0000
838   1.82846031503023E+0000
839   1.77372679693018E+0000
840   1.72117647058824E+0000
841   1.68156732071688E+0000
842   1.63977497908742E+0000
843   1.58215555601100E+0000
844   1.51082237579464E+0000
845   1.39294117647059E+0000
846   1.23905766991228E+0000
847   1.05156732071689E+0000
848   8.50363214381531E-0001
849   6.46273203069827E-0001
850   4.40000000000000E-0001
851   2.46667973400761E-0001
852   8.14014915008224E-0002
853  -5.50967324815917E-0002
854  -1.26116493441695E-0001
855  -1.50588235294118E-0001
856  -1.13175316971105E-0001
857  -4.21555560110027E-0002
858   8.14014915008224E-0002
859   2.33726796930173E-0001
860   3.88235294117647E-0001
861   5.42743791305121E-0001
862   6.82127920263884E-0001
863   7.92743791305121E-0001
864   8.50822375794636E-0001
865   8.62352941176471E-0001
866   8.37881199324048E-0001
867   7.66861438363945E-0001
868   6.69186743793296E-0001
869   5.55684967775709E-0001
870   4.27058823529412E-0001
871   3.24315032224291E-0001
872   2.23754432677292E-0001
873   1.77844443988997E-0001
874   1.71530565381835E-0001
875   2.11764705882353E-0001
876   3.00942330087717E-0001
877   4.49609149871350E-0001
878   6.11989726794939E-0001
879   8.03138561636055E-0001
880   1.00941176470588E+0000
881   1.20274379130512E+0000
882   1.38095144967565E+0000
883   1.51744967365806E+0000
884   1.60141061108876E+0000
885   1.63882352941176E+0000
886   1.60141061108876E+0000
887   1.53039085012865E+0000
888   1.41977497908742E+0000
889   1.29333202659923E+0000
890   1.15176470588235E+0000
891   1.01019738516547E+0000
892   8.83754432677293E-0001
893   7.86079738106646E-0001
894   7.28001153617133E-0001
895   7.16470588235290E-0001
896   7.53883506558303E-0001
897   8.37844443988996E-0001
898   9.61401491500823E-0001
899   1.10078562045959E+0000
900   1.25529411764706E+0000
901   1.40980261483453E+0000
902   1.54918674379330E+0000
903   1.64686143836394E+0000
904   1.70494002285346E+0000
905   1.71647058823529E+0000
906   1.66611649344170E+0000
907   1.58215555601100E+0000
908   1.47153968496977E+0000
909   1.33215555601100E+0000
910   1.19058823529412E+0000
911   1.04902091457724E+0000
912   9.22577962089053E-0001
913   8.24903267518406E-0001
914   7.66824683028893E-0001
915   7.55294117647060E-0001
916   7.92707035970073E-0001
917   8.63726796930176E-0001
918   9.87283844442003E-0001
919   1.13960914987135E+0000
920   1.29411764705882E+0000
921   1.44862614424629E+0000
922   1.60095144967565E+0000
923   1.71156732071688E+0000
924   1.78258708167699E+0000
925   1.80705882352941E+0000
926   1.78258708167699E+0000
927   1.69862614424629E+0000
928   1.58801027320506E+0000
929   1.46156732071688E+0000
930   1.30705882352941E+0000
931   1.16549150281253E+0000
932   1.02610737385376E+0000
933   9.28432679283116E-0001
934   8.57412918323013E-0001
935   8.45882352941180E-0001
936   8.83295271264183E-0001
937   9.54315032224286E-0001
938   1.06493090326552E+0000
939   1.20431503222429E+0000
940   1.35882352941176E+0000
941   1.51333202659923E+0000
942   1.65271615555800E+0000
943   1.76333202659923E+0000
944   1.83435178755934E+0000
945   1.84588235294118E+0000
946   1.80846943461817E+0000
947   1.73744967365806E+0000
948   1.61389262614624E+0000
949   1.47450849718747E+0000
950   1.33294117647059E+0000
951   1.19137385575371E+0000
952   1.05198972679494E+0000
953   9.54315032224286E-0001
954   8.96236447734773E-0001
955   8.97647058823530E-0001
956   9.22118800675953E-0001
957   1.00607973810665E+0000
958   1.11669560914788E+0000
959   1.25607973810665E+0000
960   1.39764705882353E+0000
961   1.53921437954041E+0000
962   1.67859850849918E+0000
963   1.78921437954041E+0000
964   1.86023414050052E+0000
965   1.87176470588235E+0000
966   1.84729296402993E+0000
967   1.77627320306982E+0000
968   1.66565733202859E+0000
969   1.52627320306982E+0000
970   1.38470588235294E+0000
971   1.24313856163606E+0000
972   1.10375443267729E+0000
973   1.00607973810665E+0000
974   9.48001153617133E-0001
975   9.36470588235290E-0001
976   9.73883506558303E-0001
977   1.04490326751841E+0000
978   1.15551913855964E+0000
979   1.29490326751841E+0000
980   1.43647058823529E+0000
981   1.59097908542276E+0000
982   1.71742203791095E+0000
983   1.82803790895218E+0000
984   1.89905766991229E+0000
985   1.92352941176471E+0000
986   1.89905766991229E+0000
987   1.82803790895218E+0000
988   1.71742203791095E+0000
989   1.56509673248159E+0000
990   1.42352941176471E+0000
991   1.26902091457724E+0000
992   1.12963678561847E+0000
993   1.03196209104782E+0000
994   9.73883506558303E-0001
995   9.62352941176470E-0001
996   9.99765859499483E-0001
997   1.08372679693018E+0000
998   1.20728384444200E+0000
999   1.34666797340077E+0000
1000   1.50117647058824E+0000
1001   1.65568496777571E+0000
1002   1.79506909673448E+0000
1003   1.90568496777571E+0000
1004   1.98964590520640E+0000
1005   2.01411764705882E+0000
1006   1.98964590520640E+0000
1007   1.91862614424629E+0000
1008   1.82095144967565E+0000
1009   1.68156732071688E+0000
1010   1.52705882352941E+0000
1011   1.38549150281253E+0000
1012   1.24610737385376E+0000
1013   1.14843267928312E+0000
1014   1.09035409479360E+0000
1015   1.07882352941176E+0000
1016   1.11623644773477E+0000
1017   1.20019738516547E+0000
1018   1.32375443267729E+0000
1019   1.45019738516547E+0000
1020   1.60470588235294E+0000
1021   1.74627320306982E+0000
1022   1.88565733202859E+0000
1023   1.99627320306982E+0000
1024   2.06729296402993E+0000
1025   2.09176470588235E+0000
1026   2.06729296402993E+0000
1027   1.99627320306982E+0000
1028   1.89859850849918E+0000
1029   1.75921437954041E+0000
1030   1.61764705882353E+0000
1031   1.46313856163606E+0000
1032   1.33669560914788E+0000
1033   1.22607973810665E+0000
1034   1.16800115361713E+0000
1035   1.15647058823529E+0000
1036   1.19388350655830E+0000
1037   1.27784444398900E+0000
1038   1.38846031503023E+0000
1039   1.54078562045959E+0000
1040   1.68235294117647E+0000
1041   1.83686143836394E+0000
1042   1.97624556732271E+0000
1043   2.08686143836394E+0000
1044   2.15788119932405E+0000
1045   2.18235294117647E+0000
1046   2.15788119932405E+0000
1047   2.08686143836394E+0000
1048   1.97624556732271E+0000
1049   1.83686143836394E+0000
1050   1.68235294117647E+0000
1051   1.52784444398900E+0000
1052   1.38846031503023E+0000
1053   1.27784444398900E+0000
1054   1.21976585949948E+0000
1055   1.19529411764706E+0000
1056   1.23270703597007E+0000
1057   1.31666797340077E+0000
1058   1.42728384444200E+0000
1059   1.56666797340077E+0000
1060   1.70823529411765E+0000
1061   1.84980261483453E+0000
1062   1.97624556732271E+0000
1063   2.08686143836394E+0000
1064   2.14494002285346E+0000
1065   2.15647058823529E+0000
1066   2.13199884638287E+0000
1067   2.06097908542276E+0000
1068   1.95036321438153E+0000
1069   1.81097908542276E+0000
1070   1.66941176470588E+0000
1071   1.51490326751841E+0000
1072   1.37551913855964E+0000
1073   1.26490326751841E+0000
1074   1.19388350655830E+0000
1075   1.16941176470588E+0000
1076   1.20682468302889E+0000
1077   1.27784444398900E+0000
1078   1.38846031503023E+0000
1079   1.52784444398900E+0000
1080   1.66941176470588E+0000
1081   1.81097908542276E+0000
1082   1.93742203791095E+0000
1083   2.03509673248159E+0000
1084   2.09317531697111E+0000
1085   2.10470588235294E+0000
1086   2.06729296402993E+0000
1087   1.99627320306982E+0000
1088   1.88565733202859E+0000
1089   1.74627320306982E+0000
1090   1.57882352941176E+0000
1091   1.42431503222429E+0000
1092   1.28493090326552E+0000
1093   1.17431503222429E+0000
1094   1.09035409479360E+0000
1095   1.06588235294118E+0000
1096   1.10329527126418E+0000
1097   1.17431503222429E+0000
1098   1.27198972679494E+0000
1099   1.41137385575371E+0000
1100   1.55294117647059E+0000
1101   1.69450849718747E+0000
1102   1.82095144967565E+0000
1103   1.91862614424629E+0000
1104   1.97670472873582E+0000
1105   1.98823529411765E+0000
1106   1.95082237579464E+0000
1107   1.86686143836394E+0000
1108   1.75624556732271E+0000
1109   1.60392026189335E+0000
1110   1.44941176470588E+0000
1111   1.29490326751841E+0000
1112   1.14257796208905E+0000
1113   1.03196209104782E+0000
1114   9.60942330087713E-0001
1115   9.36470588235290E-0001
1116   9.73883506558303E-0001
1117   1.04490326751841E+0000
1118   1.15551913855964E+0000
1119   1.30784444398900E+0000
1120   1.44941176470588E+0000
1121   1.59097908542276E+0000
1122   1.73036321438153E+0000
1123   1.82803790895218E+0000
1124   1.88611649344170E+0000
1125   1.91058823529412E+0000
1126   1.86023414050052E+0000
1127   1.78921437954041E+0000
1128   1.67859850849918E+0000
1129   1.53921437954041E+0000
1130   1.37176470588235E+0000
1131   1.21725620869488E+0000
1132   1.09081325620670E+0000
1133   9.67256208694876E-0001
1134   8.96236447734773E-0001
1135   8.71764705882350E-0001
1136   8.96236447734773E-0001
1137   9.67256208694876E-0001
1138   1.09081325620670E+0000
1139   1.21725620869488E+0000
1140   1.37176470588235E+0000
1141   1.51333202659923E+0000
1142   1.65271615555800E+0000
1143   1.75039085012865E+0000
1144   1.80846943461817E+0000
1145   1.83294117647059E+0000
1146   1.79552825814758E+0000
1147   1.71156732071688E+0000
1148   1.60095144967565E+0000
1149   1.47450849718747E+0000
1150   1.32000000000000E+0000
1151   1.16549150281253E+0000
1152   1.02610737385376E+0000
1153   9.15491502812526E-0001
1154   8.44471741852423E-0001
1155   8.20000000000000E-0001
1156   8.44471741852423E-0001
1157   9.15491502812526E-0001
1158   1.02610737385376E+0000
1159   1.16549150281253E+0000
1160   1.32000000000000E+0000
1161   1.47450849718747E+0000
1162   1.60095144967565E+0000
1163   1.69862614424629E+0000
1164   1.76964590520640E+0000
1165   1.78117647058824E+0000
1166   1.74376355226523E+0000
1167   1.67274379130512E+0000
1168   1.54918674379330E+0000
1169   1.42274379130512E+0000
1170   1.26823529411765E+0000
1171   1.12666797340077E+0000
1172   1.00022502091258E+0000
1173   8.89609149871346E-0001
1174   8.18589388911243E-0001
1175   8.07058823529410E-0001
1176   8.31530565381833E-0001
1177   9.02550326341936E-0001
1178   1.01316619738317E+0000
1179   1.15255032634194E+0000
1180   1.30705882352941E+0000
1181   1.46156732071688E+0000
1182   1.58801027320506E+0000
1183   1.69862614424629E+0000
1184   1.75670472873582E+0000
1185   1.78117647058824E+0000
1186   1.74376355226523E+0000
1187   1.67274379130512E+0000
1188   1.56212792026389E+0000
1189   1.42274379130512E+0000
1190   1.28117647058824E+0000
1191   1.12666797340077E+0000
1192   1.00022502091258E+0000
1193   9.02550326341936E-0001
1194   8.31530565381833E-0001
1195   8.07058823529410E-0001
1196   8.31530565381833E-0001
1197   9.02550326341936E-0001
1198   1.01316619738317E+0000
1199   1.15255032634194E+0000
1200   1.30705882352941E+0000
1201   1.46156732071688E+0000
1202   1.60095144967565E+0000
1203   1.69862614424629E+0000
1204   1.76964590520640E+0000
1205   1.78117647058824E+0000
1206   1.74376355226523E+0000
1207   1.65980261483453E+0000
1208   1.53624556732271E+0000
1209   1.39686143836394E+0000
1210   1.24235294117647E+0000
1211   1.10078562045959E+0000
1212   9.61401491500823E-0001
1213   8.63726796930176E-0001
1214   7.92707035970073E-0001
1215   7.68235294117650E-0001
1216   7.92707035970073E-0001
1217   8.76667973400766E-0001
1218   9.87283844442003E-0001
1219   1.12666797340077E+0000
1220   1.28117647058824E+0000
1221   1.43568496777571E+0000
1222   1.56212792026389E+0000
1223   1.67274379130512E+0000
1224   1.74376355226523E+0000
1225   1.76823529411765E+0000
1226   1.73082237579464E+0000
1227   1.64686143836394E+0000
1228   1.52330439085212E+0000
1229   1.39686143836394E+0000
1230   1.24235294117647E+0000
1231   1.10078562045959E+0000
1232   9.74342667971413E-0001
1233   8.76667973400766E-0001
1234   8.05648212440663E-0001
1235   7.94117647058820E-0001
1236   8.18589388911243E-0001
1237   9.02550326341936E-0001
1238   1.01316619738317E+0000
1239   1.13960914987135E+0000
1240   1.29411764705882E+0000
1241   1.43568496777571E+0000
1242   1.57506909673448E+0000
1243   1.67274379130512E+0000
1244   1.74376355226523E+0000
1245   1.75529411764706E+0000
1246   1.73082237579464E+0000
1247   1.64686143836394E+0000
1248   1.52330439085212E+0000
1249   1.38392026189335E+0000
1250   1.24235294117647E+0000
1251   1.08784444398900E+0000
1252   9.61401491500823E-0001
1253   8.63726796930176E-0001
1254   7.92707035970073E-0001
1255   7.81176470588240E-0001
1256   8.05648212440663E-0001
1257   8.89609149871346E-0001
1258   9.87283844442003E-0001
1259   1.13960914987135E+0000
1260   1.28117647058824E+0000
1261   1.43568496777571E+0000
1262   1.57506909673448E+0000
1263   1.68568496777571E+0000
1264   1.75670472873582E+0000
1265   1.76823529411765E+0000
1266   1.74376355226523E+0000
1267   1.65980261483453E+0000
1268   1.54918674379330E+0000
1269   1.39686143836394E+0000
1270   1.24235294117647E+0000
1271   1.08784444398900E+0000
1272   9.61401491500823E-0001
1273   8.50785620459586E-0001
1274   7.92707035970073E-0001
1275   7.68235294117650E-0001
1276   8.05648212440663E-0001
1277   8.89609149871346E-0001
1278   1.00022502091258E+0000
1279   1.13960914987135E+0000
1280   1.28117647058824E+0000
1281   1.42274379130512E+0000
1282   1.56212792026389E+0000
1283   1.67274379130512E+0000
1284   1.74376355226523E+0000
1285   1.76823529411765E+0000
1286   1.74376355226523E+0000
1287   1.65980261483453E+0000
1288   1.54918674379330E+0000
1289   1.40980261483453E+0000
1290   1.25529411764706E+0000
1291   1.11372679693018E+0000
1292   9.74342667971413E-0001
1293   8.63726796930176E-0001
1294   8.05648212440663E-0001
1295   7.81176470588240E-0001
1296   8.18589388911243E-0001
1297   8.89609149871346E-0001
1298   1.00022502091258E+0000
1299   1.13960914987135E+0000
1300   1.29411764705882E+0000
1301   1.43568496777571E+0000
1302   1.57506909673448E+0000
1303   1.67274379130512E+0000
1304   1.74376355226523E+0000
1305   1.76823529411765E+0000
1306   1.74376355226523E+0000
1307   1.65980261483453E+0000
1308   1.54918674379330E+0000
1309   1.40980261483453E+0000
1310   1.24235294117647E+0000
1311   1.08784444398900E+0000
1312   9.48460315030233E-0001
1313   8.50785620459586E-0001
1314   7.79765859499483E-0001
1315   7.55294117647060E-0001
1316   7.92707035970073E-0001
1317   8.76667973400766E-0001
1318   9.87283844442003E-0001
1319   1.11372679693018E+0000
1320   1.26823529411765E+0000
1321   1.42274379130512E+0000
1322   1.54918674379330E+0000
1323   1.65980261483453E+0000
1324   1.74376355226523E+0000
1325   1.75529411764706E+0000
1326   1.73082237579464E+0000
1327   1.65980261483453E+0000
1328   1.54918674379330E+0000
1329   1.39686143836394E+0000
1330   1.24235294117647E+0000
1331   1.10078562045959E+0000
1332   9.61401491500823E-0001
1333   8.50785620459586E-0001
1334   7.92707035970073E-0001
1335   7.68235294117650E-0001
1336   8.05648212440663E-0001
1337   8.89609149871346E-0001
1338   1.00022502091258E+0000
1339   1.13960914987135E+0000
1340   1.28117647058824E+0000
1341   1.43568496777571E+0000
1342   1.56212792026389E+0000
1343   1.65980261483453E+0000
1344   1.73082237579464E+0000
1345   1.74235294117647E+0000
1346   1.71788119932405E+0000
1347   1.63392026189335E+0000
1348   1.52330439085212E+0000
1349   1.38392026189335E+0000
1350   1.22941176470588E+0000
1351   1.07490326751841E+0000
1352   9.35519138559643E-0001
1353   8.37844443988996E-0001
1354   7.66824683028893E-0001
1355   7.42352941176470E-0001
1356   7.79765859499483E-0001
1357   8.63726796930176E-0001
1358   9.74342667971413E-0001
1359   1.11372679693018E+0000
1360   1.26823529411765E+0000
1361   1.40980261483453E+0000
1362   1.54918674379330E+0000
1363   1.64686143836394E+0000
1364   1.71788119932405E+0000
1365   1.72941176470588E+0000
1366   1.70494002285346E+0000
1367   1.63392026189335E+0000
1368   1.52330439085212E+0000
1369   1.38392026189335E+0000
1370   1.24235294117647E+0000
1371   1.08784444398900E+0000
1372   9.61401491500823E-0001
1373   8.50785620459586E-0001
1374   7.79765859499483E-0001
1375   7.55294117647060E-0001
1376   7.92707035970073E-0001
1377   8.63726796930176E-0001
1378   9.87283844442003E-0001
1379   1.11372679693018E+0000
1380   1.26823529411765E+0000
1381   1.42274379130512E+0000
1382   1.54918674379330E+0000
1383   1.65980261483453E+0000
1384   1.73082237579464E+0000
1385   1.74235294117647E+0000
1386   1.71788119932405E+0000
1387   1.64686143836394E+0000
1388   1.53624556732271E+0000
1389   1.39686143836394E+0000
1390   1.22941176470588E+0000
1391   1.07490326751841E+0000
1392   9.35519138559643E-0001
1393   8.24903267518406E-0001
1394   7.53883506558303E-0001
1395   7.29411764705880E-0001
1396   7.66824683028893E-0001
1397   8.50785620459586E-0001
1398   9.74342667971413E-0001
1399   1.12666797340077E+0000
1400   1.28117647058824E+0000
1401   1.43568496777571E+0000
1402   1.56212792026389E+0000
1403   1.67274379130512E+0000
1404   1.73082237579464E+0000
1405   1.75529411764706E+0000
1406   1.71788119932405E+0000
1407   1.64686143836394E+0000
1408   1.52330439085212E+0000
1409   1.39686143836394E+0000
1410   1.24235294117647E+0000
1411   1.10078562045959E+0000
1412   9.61401491500823E-0001
1413   8.50785620459586E-0001
1414   7.92707035970073E-0001
1415   7.81176470588240E-0001
1416   8.05648212440663E-0001
1417   8.89609149871346E-0001
1418   1.01316619738317E+0000
1419   1.16549150281253E+0000
1420   1.32000000000000E+0000
1421   1.47450849718747E+0000
1422   1.60095144967565E+0000
1423   1.69862614424629E+0000
1424   1.76964590520640E+0000
1425   1.78117647058824E+0000
1426   1.75670472873582E+0000
1427   1.68568496777571E+0000
1428   1.58801027320506E+0000
1429   1.46156732071688E+0000
1430   1.32000000000000E+0000
1431   1.17843267928312E+0000
1432   1.05198972679494E+0000
1433   9.41373855753706E-0001
1434   8.70354094793603E-0001
1435   8.58823529411760E-0001
1436   8.96236447734773E-0001
1437   9.80197385165466E-0001
1438   1.10375443267729E+0000
1439   1.24313856163606E+0000
1440   1.41058823529412E+0000
1441   1.56509673248159E+0000
1442   1.70448086144036E+0000
1443   1.81509673248159E+0000
1444   1.88611649344170E+0000
1445   1.89764705882353E+0000
1446   1.87317531697111E+0000
1447   1.78921437954041E+0000
1448   1.67859850849918E+0000
1449   1.53921437954041E+0000
1450   1.39764705882353E+0000
1451   1.25607973810665E+0000
1452   1.12963678561847E+0000
1453   1.01902091457724E+0000
1454   9.48001153617133E-0001
1455   9.36470588235290E-0001
1456   9.60942330087713E-0001
1457   1.04490326751841E+0000
1458   1.15551913855964E+0000
1459   1.30784444398900E+0000
1460   1.46235294117647E+0000
1461   1.60392026189335E+0000
1462   1.74330439085212E+0000
1463   1.84097908542276E+0000
1464   1.91199884638287E+0000
1465   1.92352941176471E+0000
1466   1.88611649344170E+0000
1467   1.80215555601100E+0000
1468   1.69153968496977E+0000
1469   1.53921437954041E+0000
1470   1.39764705882353E+0000
1471   1.24313856163606E+0000
1472   1.11669560914788E+0000
1473   1.00607973810665E+0000
1474   9.22118800675953E-0001
1475   8.97647058823530E-0001
1476   9.09177624205363E-0001
1477   9.80197385165466E-0001
1478   1.07787207973611E+0000
1479   1.21725620869488E+0000
1480   1.35882352941176E+0000
1481   1.51333202659923E+0000
1482   1.63977497908742E+0000
1483   1.73744967365806E+0000
1484   1.79552825814758E+0000
1485   1.80705882352941E+0000
1486   1.75670472873582E+0000
1487   1.67274379130512E+0000
1488   1.54918674379330E+0000
1489   1.39686143836394E+0000
1490   1.22941176470588E+0000
1491   1.07490326751841E+0000
1492   9.35519138559643E-0001
1493   8.37844443988996E-0001
1494   7.53883506558303E-0001
1495   7.29411764705880E-0001
1496   7.53883506558303E-0001
1497   8.37844443988996E-0001
1498   9.48460315030233E-0001
1499   1.08784444398900E+0000
1500   1.22941176470588E+0000
1501   1.38392026189335E+0000
1502   1.52330439085212E+0000
1503   1.63392026189335E+0000
1504   1.69199884638287E+0000
1505   1.71647058823529E+0000
1506   1.67905766991229E+0000
1507   1.59509673248159E+0000
1508   1.47153968496977E+0000
1509   1.33215555601100E+0000
1510   1.17764705882353E+0000
1511   1.03607973810665E+0000
1512   9.09636785618473E-0001
1513   8.11962091047816E-0001
1514   7.40942330087713E-0001
1515   7.16470588235290E-0001
1516   7.53883506558303E-0001
1517   8.24903267518406E-0001
1518   9.35519138559643E-0001
1519   1.06196209104782E+0000
1520   1.21647058823529E+0000
1521   1.37097908542276E+0000
1522   1.51036321438153E+0000
1523   1.62097908542276E+0000
1524   1.67905766991229E+0000
1525   1.70352941176471E+0000
1526   1.66611649344170E+0000
1527   1.58215555601100E+0000
1528   1.45859850849918E+0000
1529   1.31921437954041E+0000
1530   1.16470588235294E+0000
1531   1.01019738516547E+0000
1532   8.83754432677293E-0001
1533   7.86079738106646E-0001
1534   7.15059977146543E-0001
1535   6.90588235294120E-0001
1536   7.15059977146543E-0001
1537   7.86079738106646E-0001
1538   8.96695609147883E-0001
1539   1.03607973810665E+0000
1540   1.19058823529412E+0000
1541   1.33215555601100E+0000
1542   1.47153968496977E+0000
1543   1.59509673248159E+0000
1544   1.66611649344170E+0000
1545   1.67764705882353E+0000
1546   1.65317531697111E+0000
1547   1.56921437954041E+0000
1548   1.45859850849918E+0000
1549   1.31921437954041E+0000
1550   1.16470588235294E+0000
1551   1.01019738516547E+0000
1552   8.83754432677293E-0001
1553   7.73138561636056E-0001
1554   7.15059977146543E-0001
1555   6.90588235294120E-0001
1556   7.15059977146543E-0001
1557   7.86079738106646E-0001
1558   8.96695609147883E-0001
1559   1.02313856163606E+0000
1560   1.17764705882353E+0000
1561   1.31921437954041E+0000
1562   1.45859850849918E+0000
1563   1.56921437954041E+0000
1564   1.64023414050052E+0000
1565   1.65176470588235E+0000
1566   1.61435178755934E+0000
1567   1.54333202659923E+0000
1568   1.41977497908742E+0000
1569   1.28039085012865E+0000
1570   1.12588235294118E+0000
1571   9.84315032224286E-0001
1572   8.70813256206703E-0001
1573   7.99020914577236E-0001
1574   7.66824683028893E-0001
1575   7.94117647058820E-0001
1576   8.70354094793603E-0001
1577   1.00607973810665E+0000
1578   1.18140149150082E+0000
1579   1.39843267928312E+0000
1580   1.61764705882353E+0000
1581   1.84980261483453E+0000
1582   2.07977497908742E+0000
1583   2.28097908542276E+0000
1584   2.45552825814758E+0000
1585   2.58352941176471E+0000
1586   2.68846943461817E+0000
1587   2.72097908542276E+0000
1588   2.73977497908742E+0000
1589   2.71686143836394E+0000
1590   2.67882352941176E+0000
1591   2.65372679693018E+0000
1592   2.61787207973611E+0000
1593   2.59784444398900E+0000
1594   2.57858938891124E+0000
1595   2.59294117647059E+0000
1596   2.61741291832301E+0000
1597   2.64960914987135E+0000
1598   2.66963678561847E+0000
1599   2.69255032634194E+0000
1600   2.69176470588235E+0000
1601   2.66509673248159E+0000
1602   2.61036321438153E+0000
1603   2.52686143836394E+0000
1604   2.40376355226523E+0000
1605   2.23411764705882E+0000
1606   2.01552825814758E+0000
1607   1.77627320306982E+0000
1608   1.49742203791095E+0000
1609   1.20274379130512E+0000
1610   9.18823529411765E-0001
1611   6.34903267518408E-0001
1612   3.91989726794939E-0001
1613   1.77844443988997E-0001
1614   2.91776242053642E-0002
1615  -6.00000000000000E-0002
1616  -7.43517875593418E-0002
1617  -4.21555560110027E-0002
1618   5.55191385596454E-0002
1619   1.69020914577232E-0001
1620   3.10588235294118E-0001
1621   4.65096732481592E-0001
1622   6.04480861440355E-0001
1623   7.28037908952180E-0001
1624   8.11998846382871E-0001
1625   8.49411764705882E-0001
1626   8.24940022853459E-0001
1627   7.66861438363945E-0001
1628   6.56245567322708E-0001
1629   5.29802614834533E-0001
1630   3.75294117647059E-0001
1631   2.33726796930173E-0001
1632   9.43426679714104E-0002
1633   9.60914987135029E-0003
1634  -3.55282581475768E-0002
1635  -3.41176470588240E-0002
1636   4.21188006759522E-0002
1637   1.64903267518408E-0001
1638   3.40225020912587E-0001
1639   5.31373855753702E-0001
1640   7.50588235294118E-0001
1641   9.56861438363945E-0001
1642   1.14801027320506E+0000
1643   1.29744967365806E+0000
1644   1.42023414050052E+0000
1645   1.48352941176471E+0000
1646   1.49788119932405E+0000
1647   1.45274379130512E+0000
1648   1.36801027320506E+0000
1649   1.24156732071688E+0000
1650   1.10000000000000E+0000
1651   9.58432679283116E-0001
1652   8.31989726794943E-0001
1653   7.21373855753706E-0001
1654   6.63295271264183E-0001
1655   6.51764705882350E-0001
1656   6.89177624205363E-0001
1657   7.73138561636056E-0001
1658   8.96695609147883E-0001
1659   1.03607973810665E+0000
1660   1.19058823529412E+0000
1661   1.34509673248159E+0000
1662   1.49742203791095E+0000
1663   1.59509673248159E+0000
1664   1.67905766991229E+0000
1665   1.70352941176471E+0000
1666   1.66611649344170E+0000
1667   1.59509673248159E+0000
1668   1.47153968496977E+0000
1669   1.33215555601100E+0000
1670   1.16470588235294E+0000
1671   1.01019738516547E+0000
1672   8.70813256206703E-0001
1673   7.47256208694876E-0001
1674   6.76236447734773E-0001
1675   6.64705882352940E-0001
1676   6.89177624205363E-0001
1677   7.73138561636056E-0001
1678   8.96695609147883E-0001
1679   1.04902091457724E+0000
1680   1.21647058823529E+0000
1681   1.38392026189335E+0000
1682   1.52330439085212E+0000
1683   1.64686143836394E+0000
1684   1.71788119932405E+0000
1685   1.75529411764706E+0000
1686   1.73082237579464E+0000
1687   1.67274379130512E+0000
1688   1.56212792026389E+0000
1689   1.42274379130512E+0000
1690   1.26823529411765E+0000
1691   1.12666797340077E+0000
1692   9.87283844442003E-0001
1693   8.89609149871346E-0001
1694   8.18589388911243E-0001
1695   7.94117647058820E-0001
1696   8.31530565381833E-0001
1697   9.15491502812526E-0001
1698   1.03904855032435E+0000
1699   1.19137385575371E+0000
1700   1.34588235294118E+0000
1701   1.48744967365806E+0000
1702   1.62683380261683E+0000
1703   1.72450849718747E+0000
1704   1.78258708167699E+0000
1705   1.80705882352941E+0000
1706   1.76964590520640E+0000
1707   1.68568496777571E+0000
1708   1.57506909673448E+0000
1709   1.42274379130512E+0000
1710   1.26823529411765E+0000
1711   1.11372679693018E+0000
1712   9.87283844442003E-0001
1713   8.76667973400766E-0001
1714   8.05648212440663E-0001
1715   7.94117647058820E-0001
1716   8.31530565381833E-0001
1717   9.02550326341936E-0001
1718   1.02610737385376E+0000
1719   1.17843267928312E+0000
1720   1.33294117647059E+0000
1721   1.48744967365806E+0000
1722   1.62683380261683E+0000
1723   1.73744967365806E+0000
1724   1.80846943461817E+0000
1725   1.82000000000000E+0000
1726   1.79552825814758E+0000
1727   1.72450849718747E+0000
1728   1.60095144967565E+0000
1729   1.47450849718747E+0000
1730   1.32000000000000E+0000
1731   1.17843267928312E+0000
1732   1.03904855032435E+0000
1733   9.41373855753706E-0001
1734   8.83295271264183E-0001
1735   8.58823529411760E-0001
1736   8.96236447734773E-0001
1737   9.67256208694876E-0001
1738   1.09081325620670E+0000
1739   1.23019738516547E+0000
1740   1.38470588235294E+0000
1741   1.52627320306982E+0000
1742   1.66565733202859E+0000
1743   1.76333202659923E+0000
1744   1.83435178755934E+0000
1745   1.85882352941176E+0000
1746   1.82141061108876E+0000
1747   1.75039085012865E+0000
1748   1.63977497908742E+0000
1749   1.51333202659923E+0000
1750   1.37176470588235E+0000
1751   1.21725620869488E+0000
1752   1.09081325620670E+0000
1753   9.93138561636056E-0001
1754   9.22118800675953E-0001
1755   9.10588235294120E-0001
1756   9.35059977146543E-0001
1757   1.01902091457724E+0000
1758   1.12963678561847E+0000
1759   1.28196209104782E+0000
1760   1.44941176470588E+0000
1761   1.60392026189335E+0000
1762   1.74330439085212E+0000
1763   1.85392026189335E+0000
1764   1.92494002285346E+0000
1765   1.93647058823529E+0000
1766   1.91199884638287E+0000
1767   1.84097908542276E+0000
1768   1.73036321438153E+0000
1769   1.59097908542276E+0000
1770   1.43647058823529E+0000
1771   1.29490326751841E+0000
1772   1.16846031503023E+0000
1773   1.07078562045959E+0000
1774   9.99765859499483E-0001
1775   9.75294117647060E-0001
1776   1.01270703597007E+0000
1777   1.09666797340077E+0000
1778   1.22022502091258E+0000
1779   1.35960914987135E+0000
1780   1.52705882352941E+0000
1781   1.68156732071688E+0000
1782   1.82095144967565E+0000
1783   1.93156732071688E+0000
1784   2.01552825814758E+0000
1785   2.02705882352941E+0000
1786   2.00258708167699E+0000
1787   1.91862614424629E+0000
1788   1.80801027320506E+0000
1789   1.66862614424629E+0000
1790   1.51411764705882E+0000
1791   1.37255032634194E+0000
1792   1.24610737385376E+0000
1793   1.14843267928312E+0000
1794   1.07741291832301E+0000
1795   1.06588235294118E+0000
1796   1.09035409479360E+0000
1797   1.17431503222429E+0000
1798   1.29787207973611E+0000
1799   1.45019738516547E+0000
1800   1.60470588235294E+0000
1801   1.77215555601100E+0000
1802   1.91153968496977E+0000
1803   2.02215555601100E+0000
1804   2.08023414050052E+0000
1805   2.10470588235294E+0000
1806   2.08023414050052E+0000
1807   1.99627320306982E+0000
1808   1.88565733202859E+0000
1809   1.74627320306982E+0000
1810   1.60470588235294E+0000
1811   1.46313856163606E+0000
1812   1.32375443267729E+0000
1813   1.22607973810665E+0000
1814   1.15505997714654E+0000
1815   1.13058823529412E+0000
1816   1.15505997714654E+0000
1817   1.23902091457724E+0000
1818   1.34963678561847E+0000
1819   1.50196209104782E+0000
1820   1.65647058823529E+0000
1821   1.81097908542276E+0000
1822   1.95036321438153E+0000
1823   2.04803790895218E+0000
1824   2.11905766991229E+0000
1825   2.13058823529412E+0000
1826   2.09317531697111E+0000
1827   2.00921437954041E+0000
1828   1.89859850849918E+0000
1829   1.74627320306982E+0000
1830   1.59176470588235E+0000
1831   1.45019738516547E+0000
1832   1.31081325620670E+0000
1833   1.20019738516547E+0000
1834   1.14211880067595E+0000
1835   1.10470588235294E+0000
1836   1.12917762420536E+0000
1837   1.20019738516547E+0000
1838   1.31081325620670E+0000
1839   1.45019738516547E+0000
1840   1.60470588235294E+0000
1841   1.74627320306982E+0000
1842   1.88565733202859E+0000
1843   1.98333202659923E+0000
1844   2.04141061108876E+0000
1845   2.05294117647059E+0000
1846   2.01552825814758E+0000
1847   1.93156732071688E+0000
1848   1.80801027320506E+0000
1849   1.65568496777571E+0000
1850   1.51411764705882E+0000
1851   1.35960914987135E+0000
1852   1.22022502091258E+0000
1853   1.12255032634194E+0000
1854   1.05153056538183E+0000
1855   1.02705882352941E+0000
1856   1.05153056538183E+0000
1857   1.12255032634194E+0000
1858   1.23316619738317E+0000
1859   1.37255032634194E+0000
1860   1.51411764705882E+0000
1861   1.66862614424629E+0000
1862   1.79506909673448E+0000
1863   1.89274379130512E+0000
1864   1.95082237579464E+0000
1865   1.96235294117647E+0000
1866   1.92494002285346E+0000
1867   1.84097908542276E+0000
1868   1.71742203791095E+0000
1869   1.57803790895218E+0000
1870   1.41058823529412E+0000
1871   1.25607973810665E+0000
1872   1.12963678561847E+0000
1873   1.01902091457724E+0000
1874   9.48001153617133E-0001
1875   9.23529411764710E-0001
1876   9.48001153617133E-0001
1877   1.01902091457724E+0000
1878   1.12963678561847E+0000
1879   1.26902091457724E+0000
1880   1.42352941176471E+0000
1881   1.56509673248159E+0000
1882   1.69153968496977E+0000
1883   1.80215555601100E+0000
1884   1.86023414050052E+0000
1885   1.87176470588235E+0000
1886   1.84729296402993E+0000
1887   1.76333202659923E+0000
1888   1.63977497908742E+0000
1889   1.50039085012865E+0000
1890   1.33294117647059E+0000
1891   1.17843267928312E+0000
1892   1.03904855032435E+0000
1893   9.28432679283116E-0001
1894   8.57412918323013E-0001
1895   8.32941176470590E-0001
1896   8.57412918323013E-0001
1897   9.28432679283116E-0001
1898   1.03904855032435E+0000
1899   1.17843267928312E+0000
1900   1.33294117647059E+0000
1901   1.47450849718747E+0000
1902   1.60095144967565E+0000
1903   1.71156732071688E+0000
1904   1.76964590520640E+0000
1905   1.79411764705882E+0000
1906   1.76964590520640E+0000
1907   1.67274379130512E+0000
1908   1.56212792026389E+0000
1909   1.40980261483453E+0000
1910   1.25529411764706E+0000
1911   1.10078562045959E+0000
1912   9.61401491500823E-0001
1913   8.50785620459586E-0001
1914   7.79765859499483E-0001
1915   7.55294117647060E-0001
1916   7.79765859499483E-0001
1917   8.50785620459586E-0001
1918   9.74342667971413E-0001
1919   1.11372679693018E+0000
1920   1.26823529411765E+0000
1921   1.42274379130512E+0000
1922   1.54918674379330E+0000
1923   1.65980261483453E+0000
1924   1.73082237579464E+0000
1925   1.75529411764706E+0000
1926   1.73082237579464E+0000
1927   1.64686143836394E+0000
1928   1.52330439085212E+0000
1929   1.38392026189335E+0000
1930   1.22941176470588E+0000
1931   1.08784444398900E+0000
1932   9.48460315030233E-0001
1933   8.37844443988996E-0001
1934   7.79765859499483E-0001
1935   7.55294117647060E-0001
1936   7.79765859499483E-0001
1937   8.63726796930176E-0001
1938   9.74342667971413E-0001
1939   1.11372679693018E+0000
1940   1.28117647058824E+0000
1941   1.43568496777571E+0000
1942   1.56212792026389E+0000
1943   1.67274379130512E+0000
1944   1.74376355226523E+0000
1945   1.75529411764706E+0000
1946   1.73082237579464E+0000
1947   1.63392026189335E+0000
1948   1.52330439085212E+0000
1949   1.37097908542276E+0000
1950   1.20352941176471E+0000
1951   1.04902091457724E+0000
1952   9.22577962089053E-0001
1953   8.11962091047816E-0001
1954   7.53883506558303E-0001
1955   7.42352941176470E-0001
1956   7.79765859499483E-0001
1957   8.50785620459586E-0001
1958   9.74342667971413E-0001
1959   1.11372679693018E+0000
1960   1.25529411764706E+0000
1961   1.40980261483453E+0000
1962   1.53624556732271E+0000
1963   1.63392026189335E+0000
1964   1.70494002285346E+0000
1965   1.72941176470588E+0000
1966   1.70494002285346E+0000
1967   1.62097908542276E+0000
1968   1.51036321438153E+0000
1969   1.35803790895218E+0000
1970   1.20352941176471E+0000
1971   1.04902091457724E+0000
1972   9.09636785618473E-0001
1973   7.99020914577236E-0001
1974   7.40942330087713E-0001
1975   7.16470588235290E-0001
1976   7.53883506558303E-0001
1977   8.24903267518406E-0001
1978   9.48460315030233E-0001
1979   1.10078562045959E+0000
1980   1.24235294117647E+0000
1981   1.39686143836394E+0000
1982   1.52330439085212E+0000
1983   1.63392026189335E+0000
1984   1.70494002285346E+0000
1985   1.72941176470588E+0000
1986   1.70494002285346E+0000
1987   1.62097908542276E+0000
1988   1.49742203791095E+0000
1989   1.35803790895218E+0000
1990   1.20352941176471E+0000
1991   1.04902091457724E+0000
1992   9.09636785618473E-0001
1993   8.11962091047816E-0001
1994   7.53883506558303E-0001
1995   7.29411764705880E-0001
1996   7.53883506558303E-0001
1997   8.37844443988996E-0001
1998   9.48460315030233E-0001
1999   1.08784444398900E+0000
2000   1.24235294117647E+0000
2001   1.38392026189335E+0000
2002   1.52330439085212E+0000
2003   1.63392026189335E+0000
2004   1.69199884638287E+0000
2005   1.71647058823529E+0000
2006   1.69199884638287E+0000
2007   1.62097908542276E+0000
2008   1.49742203791095E+0000
2009   1.35803790895218E+0000
2010   1.20352941176471E+0000
2011   1.04902091457724E+0000
2012   9.22577962089053E-0001
2013   8.11962091047816E-0001
2014   7.40942330087713E-0001
2015   7.29411764705880E-0001
2016   7.53883506558303E-0001
2017   8.37844443988996E-0001
2018   9.61401491500823E-0001
2019   1.10078562045959E+0000
2020   1.25529411764706E+0000
2021   1.39686143836394E+0000
2022   1.53624556732271E+0000
2023   1.63392026189335E+0000
2024   1.70494002285346E+0000
2025   1.72941176470588E+0000
2026   1.70494002285346E+0000
2027   1.62097908542276E+0000
2028   1.51036321438153E+0000
2029   1.37097908542276E+0000
2030   1.20352941176471E+0000
2031   1.04902091457724E+0000
2032   9.09636785618473E-0001
2033   7.99020914577236E-0001
2034   7.28001153617133E-0001
2035   7.03529411764710E-0001
2036   7.53883506558303E-0001
2037   8.37844443988996E-0001
2038   9.48460315030233E-0001
2039   1.08784444398900E+0000
2040   1.24235294117647E+0000
2041   1.39686143836394E+0000
2042   1.52330439085212E+0000
2043   1.63392026189335E+0000
2044   1.69199884638287E+0000
2045   1.71647058823529E+0000
2046   1.69199884638287E+0000
2047   1.60803790895218E+0000
2048   1.49742203791095E+0000
2049   1.35803790895218E+0000
2050   1.20352941176471E+0000
2051   1.04902091457724E+0000
2052   9.22577962089053E-0001
2053   8.11962091047816E-0001
2054   7.40942330087713E-0001
2055   7.29411764705880E-0001
2056   7.53883506558303E-0001
2057   8.37844443988996E-0001
2058   9.48460315030233E-0001
2059   1.10078562045959E+0000
2060   1.25529411764706E+0000
2061   1.39686143836394E+0000
2062   1.53624556732271E+0000
2063   1.63392026189335E+0000
2064   1.70494002285346E+0000
2065   1.72941176470588E+0000
2066   1.70494002285346E+0000
2067   1.62097908542276E+0000
2068   1.51036321438153E+0000
2069   1.37097908542276E+0000
2070   1.21647058823529E+0000
2071   1.06196209104782E+0000
2072   9.35519138559643E-0001
2073   8.24903267518406E-0001
2074   7.53883506558303E-0001
2075   7.29411764705880E-0001
2076   7.66824683028893E-0001
2077   8.50785620459586E-0001
2078   9.61401491500823E-0001
2079   1.10078562045959E+0000
2080   1.26823529411765E+0000
2081   1.40980261483453E+0000
2082   1.54918674379330E+0000
2083   1.64686143836394E+0000
2084   1.71788119932405E+0000
2085   1.72941176470588E+0000
2086   1.69199884638287E+0000
2087   1.62097908542276E+0000
2088   1.49742203791095E+0000
2089   1.35803790895218E+0000
2090   1.20352941176471E+0000
2091   1.04902091457724E+0000
2092   9.22577962089053E-0001
2093   8.11962091047816E-0001
2094   7.40942330087713E-0001
2095   7.29411764705880E-0001
2096   7.53883506558303E-0001
2097   8.37844443988996E-0001
2098   9.48460315030233E-0001
2099   1.10078562045959E+0000
2100   1.25529411764706E+0000
2101   1.40980261483453E+0000
2102   1.53624556732271E+0000
2103   1.63392026189335E+0000
2104   1.70494002285346E+0000
2105   1.71647058823529E+0000
2106   1.67905766991229E+0000
2107   1.60803790895218E+0000
2108   1.49742203791095E+0000
2109   1.34509673248159E+0000
2110   1.19058823529412E+0000
2111   1.04902091457724E+0000
2112   9.09636785618473E-0001
2113   7.99020914577236E-0001
2114   7.40942330087713E-0001
2115   7.03529411764710E-0001
2116   7.40942330087713E-0001
2117   8.11962091047816E-0001
2118   9.35519138559643E-0001
2119   1.07490326751841E+0000
2120   1.24235294117647E+0000
2121   1.39686143836394E+0000
2122   1.52330439085212E+0000
2123   1.62097908542276E+0000
2124   1.69199884638287E+0000
2125   1.70352941176471E+0000
2126   1.67905766991229E+0000
2127   1.59509673248159E+0000
2128   1.48448086144036E+0000
2129   1.34509673248159E+0000
2130   1.19058823529412E+0000
2131   1.03607973810665E+0000
2132   8.96695609147883E-0001
2133   7.99020914577236E-0001
2134   7.28001153617133E-0001
2135   7.03529411764710E-0001
2136   7.28001153617133E-0001
2137   8.11962091047816E-0001
2138   9.35519138559643E-0001
2139   1.08784444398900E+0000
2140   1.24235294117647E+0000
2141   1.39686143836394E+0000
2142   1.53624556732271E+0000
2143   1.63392026189335E+0000
2144   1.70494002285346E+0000
2145   1.70352941176471E+0000
2146   1.67905766991229E+0000
2147   1.59509673248159E+0000
2148   1.47153968496977E+0000
2149   1.33215555601100E+0000
2150   1.17764705882353E+0000
2151   1.02313856163606E+0000
2152   8.83754432677293E-0001
2153   7.86079738106646E-0001
2154   7.15059977146543E-0001
2155   6.90588235294120E-0001
2156   7.15059977146543E-0001
2157   7.86079738106646E-0001
2158   9.09636785618473E-0001
2159   1.06196209104782E+0000
2160   1.21647058823529E+0000
2161   1.37097908542276E+0000
2162   1.51036321438153E+0000
2163   1.62097908542276E+0000
2164   1.67905766991229E+0000
2165   1.70352941176471E+0000
2166   1.66611649344170E+0000
2167   1.59509673248159E+0000
2168   1.48448086144036E+0000
2169   1.34509673248159E+0000
2170   1.19058823529412E+0000
2171   1.04902091457724E+0000
2172   9.22577962089053E-0001
2173   8.11962091047816E-0001
2174   7.53883506558303E-0001
2175   7.29411764705880E-0001
2176   7.53883506558303E-0001
2177   8.24903267518406E-0001
2178   9.48460315030233E-0001
2179   1.08784444398900E+0000
2180   1.25529411764706E+0000
2181   1.40980261483453E+0000
2182   1.54918674379330E+0000
2183   1.65980261483453E+0000
2184   1.71788119932405E+0000
2185   1.74235294117647E+0000
2186   1.71788119932405E+0000
2187   1.64686143836394E+0000
2188   1.52330439085212E+0000
2189   1.38392026189335E+0000
2190   1.24235294117647E+0000
2191   1.10078562045959E+0000
2192   9.74342667971413E-0001
2193   8.76667973400766E-0001
2194   8.18589388911243E-0001
2195   7.94117647058820E-0001
2196   8.18589388911243E-0001
2197   9.02550326341936E-0001
2198   1.02610737385376E+0000
2199   1.17843267928312E+0000
2200   1.33294117647059E+0000
2201   1.50039085012865E+0000
2202   1.63977497908742E+0000
2203   1.75039085012865E+0000
2204   1.82141061108876E+0000
2205   1.84588235294118E+0000
2206   1.82141061108876E+0000
2207   1.73744967365806E+0000
2208   1.62683380261683E+0000
2209   1.48744967365806E+0000
2210   1.33294117647059E+0000
2211   1.19137385575371E+0000
2212   1.06493090326552E+0000
2213   9.54315032224286E-0001
2214   8.96236447734773E-0001
2215   8.71764705882350E-0001
2216   8.96236447734773E-0001
2217   9.67256208694876E-0001
2218   1.09081325620670E+0000
2219   1.23019738516547E+0000
2220   1.39764705882353E+0000
2221   1.55215555601100E+0000
2222   1.70448086144036E+0000
2223   1.81509673248159E+0000
2224   1.88611649344170E+0000
2225   1.92352941176471E+0000
2226   1.89905766991229E+0000
2227   1.81509673248159E+0000
2228   1.69153968496977E+0000
2229   1.55215555601100E+0000
2230   1.38470588235294E+0000
2231   1.23019738516547E+0000
2232   1.10375443267729E+0000
2233   9.93138561636056E-0001
2234   9.35059977146543E-0001
2235   9.10588235294120E-0001
2236   9.35059977146543E-0001
2237   1.00607973810665E+0000
2238   1.11669560914788E+0000
2239   1.25607973810665E+0000
2240   1.41058823529412E+0000
2241   1.56509673248159E+0000
2242   1.69153968496977E+0000
2243   1.80215555601100E+0000
2244   1.86023414050052E+0000
2245   1.88470588235294E+0000
2246   1.83435178755934E+0000
2247   1.75039085012865E+0000
2248   1.61389262614624E+0000
2249   1.46156732071688E+0000
2250   1.29411764705882E+0000
2251   1.13960914987135E+0000
2252   1.00022502091258E+0000
2253   8.89609149871346E-0001
2254   8.18589388911243E-0001
2255   7.81176470588240E-0001
2256   8.05648212440663E-0001
2257   8.63726796930176E-0001
2258   9.74342667971413E-0001
2259   1.10078562045959E+0000
2260   1.24235294117647E+0000
2261   1.38392026189335E+0000
2262   1.52330439085212E+0000
2263   1.62097908542276E+0000
2264   1.69199884638287E+0000
2265   1.70352941176471E+0000
2266   1.67905766991229E+0000
2267   1.59509673248159E+0000
2268   1.47153968496977E+0000
2269   1.31921437954041E+0000
2270   1.15176470588235E+0000
2271   9.97256208694876E-0001
2272   8.70813256206703E-0001
2273   7.60197385165466E-0001
2274   7.02118800675953E-0001
2275   6.77647058823530E-0001
2276   7.02118800675953E-0001
2277   7.86079738106646E-0001
2278   8.96695609147883E-0001
2279   1.03607973810665E+0000
2280   1.19058823529412E+0000
2281   1.33215555601100E+0000
2282   1.47153968496977E+0000
2283   1.56921437954041E+0000
2284   1.64023414050052E+0000
2285   1.66470588235294E+0000
2286   1.64023414050052E+0000
2287   1.55627320306982E+0000
2288   1.43271615555800E+0000
2289   1.28039085012865E+0000
2290   1.12588235294118E+0000
2291   9.58432679283116E-0001
2292   8.31989726794943E-0001
2293   7.34315032224286E-0001
2294   6.76236447734773E-0001
2295   6.51764705882350E-0001
2296   6.89177624205363E-0001
2297   7.73138561636056E-0001
2298   8.83754432677293E-0001
2299   1.02313856163606E+0000
2300   1.16470588235294E+0000
2301   1.31921437954041E+0000
2302   1.45859850849918E+0000
2303   1.55627320306982E+0000
2304   1.62729296402993E+0000
2305   1.65176470588235E+0000
2306   1.61435178755934E+0000
2307   1.54333202659923E+0000
2308   1.41977497908742E+0000
2309   1.28039085012865E+0000
2310   1.11294117647059E+0000
2311   9.58432679283116E-0001
2312   8.19048550324353E-0001
2313   7.21373855753706E-0001
2314   6.50354094793603E-0001
2315   6.38823529411760E-0001
2316   6.76236447734773E-0001
2317   7.60197385165466E-0001
2318   8.83754432677293E-0001
2319   1.02313856163606E+0000
2320   1.16470588235294E+0000
2321   1.31921437954041E+0000
2322   1.45859850849918E+0000
2323   1.55627320306982E+0000
2324   1.62729296402993E+0000
2325   1.65176470588235E+0000
2326   1.62729296402993E+0000
2327   1.55627320306982E+0000
2328   1.43271615555800E+0000
2329   1.28039085012865E+0000
2330   1.11294117647059E+0000
2331   9.58432679283116E-0001
2332   8.06107373853763E-0001
2333   6.95491502812526E-0001
2334   6.37412918323013E-0001
2335   6.12941176470590E-0001
2336   6.37412918323013E-0001
2337   7.08432679283116E-0001
2338   8.19048550324353E-0001
2339   9.58432679283116E-0001
2340   1.11294117647059E+0000
2341   1.26744967365806E+0000
2342   1.40683380261683E+0000
2343   1.54333202659923E+0000
2344   1.64023414050052E+0000
2345   1.70352941176471E+0000
2346   1.73082237579464E+0000
2347   1.71156732071688E+0000
2348   1.65271615555800E+0000
2349   1.56509673248159E+0000
2350   1.48823529411765E+0000
2351   1.39843267928312E+0000
2352   1.34963678561847E+0000
2353   1.32960914987135E+0000
2354   1.36211880067595E+0000
2355   1.46705882352941E+0000
2356   1.62094233008771E+0000
2357   1.83431503222429E+0000
2358   2.07434266797141E+0000
2359   2.35607973810665E+0000
2360   2.64000000000000E+0000
2361   2.91097908542276E+0000
2362   3.15389262614624E+0000
2363   3.34215555601100E+0000
2364   3.49082237579464E+0000
2365   3.55411764705882E+0000
2366   3.55552825814758E+0000
2367   3.45862614424629E+0000
2368   3.29624556732271E+0000
2369   3.05333202659923E+0000
2370   2.76941176470588E+0000
2371   2.45960914987135E+0000
2372   2.13904855032435E+0000
2373   1.83431503222429E+0000
2374   1.55623644773477E+0000
2375   1.33764705882353E+0000
2376   1.18094233008771E+0000
2377   1.07078562045959E+0000
2378   1.02610737385376E+0000
2379   1.01019738516547E+0000
2380   1.02235294117647E+0000
2381   1.03450849718747E+0000
2382   1.03153968496977E+0000
2383   1.02568496777571E+0000
2384   9.80234140500518E-0001
2385   9.27058823529412E-0001
2386   8.37881199324048E-0001
2387   7.15096732481592E-0001
2388   5.65657332028590E-0001
2389   4.00390850128650E-0001
2390   2.32941176470588E-0001
2391   6.54915028125263E-0002
2392  -7.38926261462365E-0002
2393  -1.71567320716886E-0001
2394  -2.29645905206401E-0001
2395  -2.41176470588235E-0001
2396  -1.90822375794636E-0001
2397  -9.39202618933557E-0002
2398   5.55191385596454E-0002
2399   2.20785620459585E-0001
2400   3.75294117647059E-0001
2401   5.42743791305121E-0001
2402   6.82127920263884E-0001
2403   8.05684967775709E-0001
2404   8.89645905206401E-0001
2405   9.27058823529412E-0001
2406   9.28469434618165E-0001
2407   9.09214379540415E-0001
2408   8.37422037910943E-0001
2409   7.49802614834533E-0001
2410   6.60000000000000E-0001
2411   5.57256208694879E-0001
2412   4.82577962089057E-0001
2413   4.23726796930173E-0001
2414   4.04471741852423E-0001
2415   4.31764705882353E-0001
2416   5.20942330087717E-0001
2417   6.30785620459586E-0001
2418   7.80225020912583E-0001
2419   9.58432679283116E-0001
2420   1.13882352941176E+0000
2421   1.29333202659923E+0000
2422   1.44565733202859E+0000
2423   1.54333202659923E+0000
2424   1.61435178755934E+0000
2425   1.62588235294118E+0000
2426   1.61435178755934E+0000
2427   1.54333202659923E+0000
2428   1.43271615555800E+0000
2429   1.30627320306982E+0000
2430   1.16470588235294E+0000
2431   1.02313856163606E+0000
2432   8.83754432677293E-0001
2433   7.73138561636056E-0001
2434   7.15059977146543E-0001
2435   6.90588235294120E-0001
2436   7.15059977146543E-0001
2437   7.99020914577236E-0001
2438   9.22577962089053E-0001
2439   1.06196209104782E+0000
2440   1.21647058823529E+0000
2441   1.37097908542276E+0000
2442   1.49742203791095E+0000
2443   1.58215555601100E+0000
2444   1.64023414050052E+0000
2445   1.65176470588235E+0000
2446   1.61435178755934E+0000
2447   1.54333202659923E+0000
2448   1.43271615555800E+0000
2449   1.30627320306982E+0000
2450   1.16470588235294E+0000
2451   1.02313856163606E+0000
2452   8.96695609147883E-0001
2453   7.99020914577236E-0001
2454   7.40942330087713E-0001
2455   7.16470588235290E-0001
2456   7.53883506558303E-0001
2457   8.37844443988996E-0001
2458   9.61401491500823E-0001
2459   1.11372679693018E+0000
2460   1.28117647058824E+0000
2461   1.44862614424629E+0000
2462   1.57506909673448E+0000
2463   1.68568496777571E+0000
2464   1.74376355226523E+0000
2465   1.76823529411765E+0000
2466   1.73082237579464E+0000
2467   1.65980261483453E+0000
2468   1.54918674379330E+0000
2469   1.40980261483453E+0000
2470   1.25529411764706E+0000
2471   1.11372679693018E+0000
2472   9.74342667971413E-0001
2473   8.63726796930176E-0001
2474   7.92707035970073E-0001
2475   7.68235294117650E-0001
2476   7.92707035970073E-0001
2477   8.63726796930176E-0001
2478   9.74342667971413E-0001
2479   1.12666797340077E+0000
2480   1.29411764705882E+0000
2481   1.44862614424629E+0000
2482   1.58801027320506E+0000
2483   1.69862614424629E+0000
2484   1.75670472873582E+0000
2485   1.76823529411765E+0000
2486   1.73082237579464E+0000
2487   1.65980261483453E+0000
2488   1.53624556732271E+0000
2489   1.40980261483453E+0000
2490   1.25529411764706E+0000
2491   1.11372679693018E+0000
2492   9.87283844442003E-0001
2493   8.76667973400766E-0001
2494   8.18589388911243E-0001
2495   7.94117647058820E-0001
2496   8.18589388911243E-0001
2497   8.89609149871346E-0001
2498   1.01316619738317E+0000
2499   1.16549150281253E+0000
2500   1.33294117647059E+0000
2501   1.50039085012865E+0000
2502   1.63977497908742E+0000
2503   1.75039085012865E+0000
2504   1.80846943461817E+0000
2505   1.83294117647059E+0000
2506   1.79552825814758E+0000
2507   1.71156732071688E+0000
2508   1.58801027320506E+0000
2509   1.44862614424629E+0000
2510   1.29411764705882E+0000
2511   1.15255032634194E+0000
2512   1.02610737385376E+0000
2513   9.41373855753706E-0001
2514   8.70354094793603E-0001
2515   8.45882352941180E-0001
2516   8.70354094793603E-0001
2517   9.41373855753706E-0001
2518   1.05198972679494E+0000
2519   1.20431503222429E+0000
2520   1.35882352941176E+0000
2521   1.52627320306982E+0000
2522   1.67859850849918E+0000
2523   1.77627320306982E+0000
2524   1.84729296402993E+0000
2525   1.87176470588235E+0000
2526   1.83435178755934E+0000
2527   1.75039085012865E+0000
2528   1.62683380261683E+0000
2529   1.48744967365806E+0000
2530   1.34588235294118E+0000
2531   1.19137385575371E+0000
2532   1.06493090326552E+0000
2533   9.67256208694876E-0001
2534   9.22118800675953E-0001
2535   8.97647058823530E-0001
2536   9.22118800675953E-0001
2537   1.00607973810665E+0000
2538   1.11669560914788E+0000
2539   1.26902091457724E+0000
2540   1.42352941176471E+0000
2541   1.59097908542276E+0000
2542   1.73036321438153E+0000
2543   1.85392026189335E+0000
2544   1.92494002285346E+0000
2545   1.94941176470588E+0000
2546   1.92494002285346E+0000
2547   1.84097908542276E+0000
2548   1.73036321438153E+0000
2549   1.57803790895218E+0000
2550   1.42352941176471E+0000
2551   1.28196209104782E+0000
2552   1.15551913855964E+0000
2553   1.07078562045959E+0000
2554   1.01270703597007E+0000
2555   1.00117647058824E+0000
2556   1.03858938891124E+0000
2557   1.10960914987135E+0000
2558   1.22022502091258E+0000
2559   1.35960914987135E+0000
2560   1.52705882352941E+0000
2561   1.68156732071688E+0000
2562   1.83389262614624E+0000
2563   1.94450849718747E+0000
2564   2.02846943461817E+0000
2565   2.04000000000000E+0000
2566   2.01552825814758E+0000
2567   1.94450849718747E+0000
2568   1.82095144967565E+0000
2569   1.66862614424629E+0000
2570   1.51411764705882E+0000
2571   1.35960914987135E+0000
2572   1.23316619738317E+0000
2573   1.13549150281253E+0000
2574   1.09035409479360E+0000
2575   1.06588235294118E+0000
2576   1.10329527126418E+0000
2577   1.17431503222429E+0000
2578   1.28493090326552E+0000
2579   1.43725620869488E+0000
2580   1.59176470588235E+0000
2581   1.74627320306982E+0000
2582   1.88565733202859E+0000
2583   2.00921437954041E+0000
2584   2.08023414050052E+0000
2585   2.10470588235294E+0000
2586   2.08023414050052E+0000
2587   1.98333202659923E+0000
2588   1.87271615555800E+0000
2589   1.70744967365806E+0000
2590   1.54000000000000E+0000
2591   1.38549150281253E+0000
2592   1.24610737385376E+0000
2593   1.14843267928312E+0000
2594   1.07741291832301E+0000
2595   1.07882352941176E+0000
2596   1.10329527126418E+0000
2597   1.17431503222429E+0000
2598   1.28493090326552E+0000
2599   1.42431503222429E+0000
2600   1.57882352941176E+0000
2601   1.73333202659923E+0000
2602   1.87271615555800E+0000
2603   1.99627320306982E+0000
2604   2.05435178755934E+0000
2605   2.07882352941176E+0000
2606   2.05435178755934E+0000
2607   1.97039085012865E+0000
2608   1.84683380261683E+0000
2609   1.69450849718747E+0000
2610   1.51411764705882E+0000
2611   1.34666797340077E+0000
2612   1.22022502091258E+0000
2613   1.10960914987135E+0000
2614   1.05153056538183E+0000
2615   1.02705882352941E+0000
2616   1.05153056538183E+0000
2617   1.12255032634194E+0000
2618   1.23316619738317E+0000
2619   1.37255032634194E+0000
2620   1.51411764705882E+0000
2621   1.66862614424629E+0000
2622   1.79506909673448E+0000
2623   1.90568496777571E+0000
2624   1.96376355226523E+0000
2625   1.97529411764706E+0000
2626   1.96376355226523E+0000
2627   1.87980261483453E+0000
2628   1.75624556732271E+0000
2629   1.60392026189335E+0000
2630   1.42352941176471E+0000
2631   1.25607973810665E+0000
2632   1.11669560914788E+0000
2633   1.00607973810665E+0000
2634   9.48001153617133E-0001
2635   9.36470588235290E-0001
2636   9.60942330087713E-0001
2637   1.04490326751841E+0000
2638   1.14257796208905E+0000
2639   1.28196209104782E+0000
2640   1.42352941176471E+0000
2641   1.56509673248159E+0000
2642   1.69153968496977E+0000
2643   1.78921437954041E+0000
2644   1.84729296402993E+0000
2645   1.87176470588235E+0000
2646   1.84729296402993E+0000
2647   1.77627320306982E+0000
2648   1.65271615555800E+0000
2649   1.50039085012865E+0000
2650   1.33294117647059E+0000
2651   1.16549150281253E+0000
2652   1.01316619738317E+0000
2653   9.15491502812526E-0001
2654   8.44471741852423E-0001
2655   8.32941176470590E-0001
2656   8.57412918323013E-0001
2657   9.41373855753706E-0001
2658   1.05198972679494E+0000
2659   1.19137385575371E+0000
2660   1.33294117647059E+0000
2661   1.48744967365806E+0000
2662   1.61389262614624E+0000
2663   1.71156732071688E+0000
2664   1.78258708167699E+0000
2665   1.79411764705882E+0000
2666   1.76964590520640E+0000
2667   1.69862614424629E+0000
2668   1.58801027320506E+0000
2669   1.43568496777571E+0000
2670   1.26823529411765E+0000
2671   1.10078562045959E+0000
2672   9.61401491500823E-0001
2673   8.50785620459586E-0001
2674   7.79765859499483E-0001
2675   7.68235294117650E-0001
2676   7.92707035970073E-0001
2677   8.76667973400766E-0001
2678   9.87283844442003E-0001
2679   1.13960914987135E+0000
2680   1.29411764705882E+0000
2681   1.43568496777571E+0000
2682   1.57506909673448E+0000
2683   1.67274379130512E+0000
2684   1.73082237579464E+0000
2685   1.75529411764706E+0000
2686   1.71788119932405E+0000
2687   1.64686143836394E+0000
2688   1.53624556732271E+0000
2689   1.39686143836394E+0000
2690   1.22941176470588E+0000
2691   1.06196209104782E+0000
2692   9.22577962089053E-0001
2693   8.11962091047816E-0001
2694   7.40942330087713E-0001
2695   7.16470588235290E-0001
2696   7.53883506558303E-0001
2697   8.37844443988996E-0001
2698   9.61401491500823E-0001
2699   1.10078562045959E+0000
2700   1.26823529411765E+0000
2701   1.42274379130512E+0000
2702   1.54918674379330E+0000
2703   1.64686143836394E+0000
2704   1.71788119932405E+0000
2705   1.72941176470588E+0000
2706   1.70494002285346E+0000
2707   1.63392026189335E+0000
2708   1.52330439085212E+0000
2709   1.38392026189335E+0000
2710   1.21647058823529E+0000
2711   1.06196209104782E+0000
2712   9.09636785618473E-0001
2713   7.99020914577236E-0001
2714   7.28001153617133E-0001
2715   7.03529411764710E-0001
2716   7.40942330087713E-0001
2717   8.24903267518406E-0001
2718   9.35519138559643E-0001
2719   1.10078562045959E+0000
2720   1.25529411764706E+0000
2721   1.40980261483453E+0000
2722   1.53624556732271E+0000
2723   1.63392026189335E+0000
2724   1.70494002285346E+0000
2725   1.72941176470588E+0000
2726   1.69199884638287E+0000
2727   1.63392026189335E+0000
2728   1.52330439085212E+0000
2729   1.38392026189335E+0000
2730   1.22941176470588E+0000
2731   1.07490326751841E+0000
2732   9.22577962089053E-0001
2733   8.11962091047816E-0001
2734   7.28001153617133E-0001
2735   7.03529411764710E-0001
2736   7.28001153617133E-0001
2737   8.11962091047816E-0001
2738   9.35519138559643E-0001
2739   1.08784444398900E+0000
2740   1.24235294117647E+0000
2741   1.39686143836394E+0000
2742   1.53624556732271E+0000
2743   1.63392026189335E+0000
2744   1.69199884638287E+0000
2745   1.70352941176471E+0000
2746   1.67905766991229E+0000
2747   1.60803790895218E+0000
2748   1.49742203791095E+0000
2749   1.35803790895218E+0000
2750   1.20352941176471E+0000
2751   1.06196209104782E+0000
2752   9.22577962089053E-0001
2753   8.11962091047816E-0001
2754   7.28001153617133E-0001
2755   7.16470588235290E-0001
2756   7.40942330087713E-0001
2757   8.24903267518406E-0001
2758   9.48460315030233E-0001
2759   1.10078562045959E+0000
2760   1.26823529411765E+0000
2761   1.42274379130512E+0000
2762   1.56212792026389E+0000
2763   1.64686143836394E+0000
2764   1.70494002285346E+0000
2765   1.71647058823529E+0000
2766   1.69199884638287E+0000
2767   1.60803790895218E+0000
2768   1.49742203791095E+0000
2769   1.35803790895218E+0000
2770   1.20352941176471E+0000
2771   1.04902091457724E+0000
2772   9.09636785618473E-0001
2773   7.99020914577236E-0001
2774   7.40942330087713E-0001
2775   7.16470588235290E-0001
2776   7.40942330087713E-0001
2777   8.11962091047816E-0001
2778   9.35519138559643E-0001
2779   1.08784444398900E+0000
2780   1.25529411764706E+0000
2781   1.42274379130512E+0000
2782   1.56212792026389E+0000
2783   1.67274379130512E+0000
2784   1.73082237579464E+0000
2785   1.74235294117647E+0000
2786   1.70494002285346E+0000
2787   1.62097908542276E+0000
2788   1.51036321438153E+0000
2789   1.35803790895218E+0000
2790   1.20352941176471E+0000
2791   1.04902091457724E+0000
2792   9.22577962089053E-0001
2793   8.11962091047816E-0001
2794   7.40942330087713E-0001
2795   7.16470588235290E-0001
2796   7.40942330087713E-0001
2797   8.11962091047816E-0001
2798   9.22577962089053E-0001
2799   1.07490326751841E+0000
2800   1.24235294117647E+0000
2801   1.39686143836394E+0000
2802   1.54918674379330E+0000
2803   1.64686143836394E+0000
2804   1.71788119932405E+0000
2805   1.72941176470588E+0000
2806   1.69199884638287E+0000
2807   1.60803790895218E+0000
2808   1.49742203791095E+0000
2809   1.34509673248159E+0000
2810   1.19058823529412E+0000
2811   1.03607973810665E+0000
2812   9.09636785618473E-0001
2813   7.99020914577236E-0001
2814   7.28001153617133E-0001
2815   7.03529411764710E-0001
2816   7.28001153617133E-0001
2817   8.11962091047816E-0001
2818   9.22577962089053E-0001
2819   1.07490326751841E+0000
2820   1.24235294117647E+0000
2821   1.39686143836394E+0000
2822   1.54918674379330E+0000
2823   1.64686143836394E+0000
2824   1.71788119932405E+0000
2825   1.72941176470588E+0000
2826   1.70494002285346E+0000
2827   1.62097908542276E+0000
2828   1.49742203791095E+0000
2829   1.35803790895218E+0000
2830   1.19058823529412E+0000
2831   1.03607973810665E+0000
2832   9.09636785618473E-0001
2833   8.11962091047816E-0001
2834   7.40942330087713E-0001
2835   7.16470588235290E-0001
2836   7.40942330087713E-0001
2837   8.11962091047816E-0001
2838   9.22577962089053E-0001
2839   1.06196209104782E+0000
2840   1.22941176470588E+0000
2841   1.39686143836394E+0000
2842   1.53624556732271E+0000
2843   1.64686143836394E+0000
2844   1.71788119932405E+0000
2845   1.72941176470588E+0000
2846   1.70494002285346E+0000
2847   1.62097908542276E+0000
2848   1.49742203791095E+0000
2849   1.34509673248159E+0000
2850   1.19058823529412E+0000
2851   1.03607973810665E+0000
2852   8.96695609147883E-0001
2853   7.99020914577236E-0001
2854   7.40942330087713E-0001
2855   7.16470588235290E-0001
2856   7.40942330087713E-0001
2857   8.11962091047816E-0001
2858   9.22577962089053E-0001
2859   1.06196209104782E+0000
2860   1.22941176470588E+0000
2861   1.38392026189335E+0000
2862   1.53624556732271E+0000
2863   1.63392026189335E+0000
2864   1.70494002285346E+0000
2865   1.72941176470588E+0000
2866   1.69199884638287E+0000
2867   1.62097908542276E+0000
2868   1.49742203791095E+0000
2869   1.34509673248159E+0000
2870   1.17764705882353E+0000
2871   1.02313856163606E+0000
2872   8.83754432677293E-0001
2873   7.86079738106646E-0001
2874   7.15059977146543E-0001
2875   6.90588235294120E-0001
2876   7.15059977146543E-0001
2877   7.99020914577236E-0001
2878   9.09636785618473E-0001
2879   1.04902091457724E+0000
2880   1.20352941176471E+0000
2881   1.37097908542276E+0000
2882   1.51036321438153E+0000
2883   1.62097908542276E+0000
2884   1.69199884638287E+0000
2885   1.70352941176471E+0000
2886   1.67905766991229E+0000
2887   1.59509673248159E+0000
2888   1.47153968496977E+0000
2889   1.33215555601100E+0000
2890   1.16470588235294E+0000
2891   1.01019738516547E+0000
2892   8.70813256206703E-0001
2893   7.73138561636056E-0001
2894   7.02118800675953E-0001
2895   7.03529411764710E-0001
2896   7.40942330087713E-0001
2897   8.11962091047816E-0001
2898   9.22577962089053E-0001
2899   1.07490326751841E+0000
2900   1.21647058823529E+0000
2901   1.38392026189335E+0000
2902   1.51036321438153E+0000
2903   1.62097908542276E+0000
2904   1.67905766991229E+0000
2905   1.70352941176471E+0000
2906   1.66611649344170E+0000
2907   1.59509673248159E+0000
2908   1.47153968496977E+0000
2909   1.33215555601100E+0000
2910   1.16470588235294E+0000
2911   9.97256208694876E-0001
2912   8.70813256206703E-0001
2913   7.73138561636056E-0001
2914   7.02118800675953E-0001
2915   6.90588235294120E-0001
2916   7.28001153617133E-0001
2917   7.99020914577236E-0001
2918   9.09636785618473E-0001
2919   1.04902091457724E+0000
2920   1.20352941176471E+0000
2921   1.35803790895218E+0000
2922   1.51036321438153E+0000
2923   1.60803790895218E+0000
2924   1.67905766991229E+0000
2925   1.70352941176471E+0000
2926   1.67905766991229E+0000
2927   1.60803790895218E+0000
2928   1.48448086144036E+0000
2929   1.33215555601100E+0000
2930   1.16470588235294E+0000
2931   1.01019738516547E+0000
2932   8.70813256206703E-0001
2933   7.60197385165466E-0001
2934   7.02118800675953E-0001
2935   6.77647058823530E-0001
2936   7.15059977146543E-0001
2937   7.99020914577236E-0001
2938   9.09636785618473E-0001
2939   1.06196209104782E+0000
2940   1.21647058823529E+0000
2941   1.37097908542276E+0000
2942   1.51036321438153E+0000
2943   1.60803790895218E+0000
2944   1.67905766991229E+0000
2945   1.70352941176471E+0000
2946   1.67905766991229E+0000
2947   1.59509673248159E+0000
2948   1.48448086144036E+0000
2949   1.33215555601100E+0000
2950   1.17764705882353E+0000
2951   1.02313856163606E+0000
2952   8.83754432677293E-0001
2953   7.86079738106646E-0001
2954   7.28001153617133E-0001
2955   7.16470588235290E-0001
2956   7.53883506558303E-0001
2957   8.24903267518406E-0001
2958   9.48460315030233E-0001
2959   1.08784444398900E+0000
2960   1.25529411764706E+0000
2961   1.40980261483453E+0000
2962   1.53624556732271E+0000
2963   1.64686143836394E+0000
2964   1.71788119932405E+0000
2965   1.74235294117647E+0000
2966   1.71788119932405E+0000
2967   1.63392026189335E+0000
2968   1.52330439085212E+0000
2969   1.37097908542276E+0000
2970   1.21647058823529E+0000
2971   1.04902091457724E+0000
2972   9.09636785618473E-0001
2973   7.99020914577236E-0001
2974   7.28001153617133E-0001
2975   7.16470588235290E-0001
2976   7.40942330087713E-0001
2977   8.24903267518406E-0001
2978   9.48460315030233E-0001
2979   1.11372679693018E+0000
2980   1.26823529411765E+0000
2981   1.43568496777571E+0000
2982   1.57506909673448E+0000
2983   1.69862614424629E+0000
2984   1.76964590520640E+0000
2985   1.78117647058824E+0000
2986   1.76964590520640E+0000
2987   1.69862614424629E+0000
2988   1.58801027320506E+0000
2989   1.44862614424629E+0000
2990   1.29411764705882E+0000
2991   1.13960914987135E+0000
2992   9.87283844442003E-0001
2993   8.89609149871346E-0001
2994   8.18589388911243E-0001
2995   8.07058823529410E-0001
2996   8.44471741852423E-0001
2997   9.28432679283116E-0001
2998   1.05198972679494E+0000
2999   1.20431503222429E+0000
3000   1.37176470588235E+0000
3001   1.52627320306982E+0000
3002   1.66565733202859E+0000
3003   1.77627320306982E+0000
3004   1.84729296402993E+0000
3005   1.85882352941176E+0000
3006   1.83435178755934E+0000
3007   1.76333202659923E+0000
3008   1.65271615555800E+0000
3009   1.51333202659923E+0000
3010   1.35882352941176E+0000
3011   1.20431503222429E+0000
3012   1.06493090326552E+0000
3013   9.54315032224286E-0001
3014   8.96236447734773E-0001
3015   8.84705882352940E-0001
3016   9.09177624205363E-0001
3017   9.93138561636056E-0001
3018   1.12963678561847E+0000
3019   1.26902091457724E+0000
3020   1.43647058823529E+0000
3021   1.59097908542276E+0000
3022   1.73036321438153E+0000
3023   1.84097908542276E+0000
3024   1.89905766991229E+0000
3025   1.92352941176471E+0000
3026   1.89905766991229E+0000
3027   1.81509673248159E+0000
3028   1.70448086144036E+0000
3029   1.55215555601100E+0000
3030   1.39764705882353E+0000
3031   1.23019738516547E+0000
3032   1.09081325620670E+0000
3033   9.67256208694876E-0001
3034   8.96236447734773E-0001
3035   8.71764705882350E-0001
3036   8.96236447734773E-0001
3037   9.67256208694876E-0001
3038   1.07787207973611E+0000
3039   1.21725620869488E+0000
3040   1.35882352941176E+0000
3041   1.51333202659923E+0000
3042   1.63977497908742E+0000
3043   1.73744967365806E+0000
3044   1.78258708167699E+0000
3045   1.79411764705882E+0000
3046   1.75670472873582E+0000
3047   1.67274379130512E+0000
3048   1.54918674379330E+0000
3049   1.39686143836394E+0000
3050   1.22941176470588E+0000
3051   1.06196209104782E+0000
3052   9.09636785618473E-0001
3053   7.99020914577236E-0001
3054   7.28001153617133E-0001
3055   7.03529411764710E-0001
3056   7.15059977146543E-0001
3057   7.86079738106646E-0001
3058   8.96695609147883E-0001
3059   1.04902091457724E+0000
3060   1.21647058823529E+0000
3061   1.35803790895218E+0000
3062   1.49742203791095E+0000
3063   1.60803790895218E+0000
3064   1.67905766991229E+0000
3065   1.69058823529412E+0000
3066   1.65317531697111E+0000
3067   1.58215555601100E+0000
3068   1.47153968496977E+0000
3069   1.31921437954041E+0000
3070   1.16470588235294E+0000
3071   9.97256208694876E-0001
3072   8.57872079736113E-0001
3073   7.60197385165466E-0001
3074   6.89177624205363E-0001
3075   6.64705882352940E-0001
3076   6.89177624205363E-0001
3077   7.60197385165466E-0001
3078   8.83754432677293E-0001
3079   1.02313856163606E+0000
3080   1.19058823529412E+0000
3081   1.34509673248159E+0000
3082   1.48448086144036E+0000
3083   1.58215555601100E+0000
3084   1.65317531697111E+0000
3085   1.66470588235294E+0000
3086   1.64023414050052E+0000
3087   1.55627320306982E+0000
3088   1.44565733202859E+0000
3089   1.30627320306982E+0000
3090   1.13882352941176E+0000
3091   9.84315032224286E-0001
3092   8.44930903265523E-0001
3093   7.34315032224286E-0001
3094   6.76236447734773E-0001
3095   6.51764705882350E-0001
3096   6.76236447734773E-0001
3097   7.47256208694876E-0001
3098   8.57872079736113E-0001
3099   1.01019738516547E+0000
3100   1.16470588235294E+0000
3101   1.33215555601100E+0000
3102   1.47153968496977E+0000
3103   1.56921437954041E+0000
3104   1.62729296402993E+0000
3105   1.65176470588235E+0000
3106   1.61435178755934E+0000
3107   1.54333202659923E+0000
3108   1.41977497908742E+0000
3109   1.26744967365806E+0000
3110   1.11294117647059E+0000
3111   9.58432679283116E-0001
3112   8.19048550324353E-0001
3113   7.08432679283116E-0001
3114   6.50354094793603E-0001
3115   6.38823529411760E-0001
3116   6.63295271264183E-0001
3117   7.34315032224286E-0001
3118   8.44930903265523E-0001
3119   9.97256208694876E-0001
3120   1.16470588235294E+0000
3121   1.31921437954041E+0000
3122   1.45859850849918E+0000
3123   1.56921437954041E+0000
3124   1.64023414050052E+0000
3125   1.65176470588235E+0000
3126   1.62729296402993E+0000
3127   1.54333202659923E+0000
3128   1.40683380261683E+0000
3129   1.25450849718747E+0000
3130   1.08705882352941E+0000
3131   9.19609149871346E-0001
3132   7.80225020912583E-0001
3133   6.69609149871346E-0001
3134   6.11530565381833E-0001
3135   6.12941176470590E-0001
3136   6.63295271264183E-0001
3137   7.73138561636056E-0001
3138   9.35519138559643E-0001
3139   1.12666797340077E+0000
3140   1.34588235294118E+0000
3141   1.56509673248159E+0000
3142   1.76918674379330E+0000
3143   1.95744967365806E+0000
3144   2.10611649344170E+0000
3145   2.22117647058824E+0000
3146   2.30023414050052E+0000
3147   2.31980261483453E+0000
3148   2.32565733202859E+0000
3149   2.30274379130512E+0000
3150   2.26470588235294E+0000
3151   2.23960914987135E+0000
3152   2.24257796208905E+0000
3153   2.26137385575371E+0000
3154   2.31976585949948E+0000
3155   2.41176470588235E+0000
3156   2.53976585949948E+0000
3157   2.68843267928312E+0000
3158   2.83787207973611E+0000
3159   2.99019738516547E+0000
3160   3.11882352941176E+0000
3161   3.20862614424629E+0000
3162   3.23153968496977E+0000
3163   3.19980261483453E+0000
3164   3.10258708167699E+0000
3165   2.93294117647059E+0000
3166   2.70141061108876E+0000
3167   2.42333202659923E+0000
3168   2.10565733202859E+0000
3169   1.75921437954041E+0000
3170   1.41058823529412E+0000
3171   1.07490326751841E+0000
3172   7.80225020912583E-0001
3173   5.27256208694879E-0001
3174   3.26824683028894E-0001
3175   1.98823529411765E-0001
3176   1.19765859499482E-0001
3177   1.00197385165467E-0001
3178   1.33166197383175E-0001
3179   2.20785620459585E-0001
3180   3.23529411764706E-0001
3181   4.52155556011003E-0001
3182   5.78598508499178E-0001
3183   6.76273203069827E-0001
3184   7.34351787559342E-0001
3185   7.71764705882353E-0001
3186   7.47292964029930E-0001
3187   6.89214379540415E-0001
3188   5.91539684969766E-0001
3189   4.52155556011003E-0001
3190   2.97647058823529E-0001
3191   1.56079738106644E-0001
3192   1.66956091478815E-0002
3193  -9.39202618933557E-0002
3194  -1.51998846382871E-0001
3195  -1.50588235294118E-0001
3196  -1.13175316971105E-0001
3197  -1.62732030698267E-0002
3198   1.20225020912587E-0001
3199   2.98432679283114E-0001
3200   5.04705882352941E-0001
3201   7.10979085422768E-0001
3202   9.15069096734472E-0001
3203   1.07744967365806E+0000
3204   1.21317531697111E+0000
3205   1.30235294117647E+0000
3206   1.32964590520640E+0000
3207   1.31039085012865E+0000
3208   1.25153968496977E+0000
3209   1.15097908542277E+0000
3210   1.00941176470588E+0000
3211   8.80785620459586E-0001
3212   7.54342667971413E-0001
3213   6.56667973400766E-0001
3214   5.98589388911243E-0001
3215   6.00000000000000E-0001
3216   6.37412918323013E-0001
3217   7.08432679283116E-0001
3218   8.31989726794943E-0001
3219   9.84315032224286E-0001
3220   1.15176470588235E+0000
3221   1.31921437954041E+0000
3222   1.45859850849918E+0000
3223   1.56921437954041E+0000
3224   1.64023414050052E+0000
3225   1.66470588235294E+0000
3226   1.64023414050052E+0000
3227   1.58215555601100E+0000
3228   1.47153968496977E+0000
3229   1.31921437954041E+0000
3230   1.15176470588235E+0000
3231   9.97256208694876E-0001
3232   8.44930903265523E-0001
3233   7.34315032224286E-0001
3234   6.63295271264183E-0001
3235   6.38823529411760E-0001
3236   6.63295271264183E-0001
3237   7.47256208694876E-0001
3238   8.70813256206703E-0001
3239   1.02313856163606E+0000
3240   1.19058823529412E+0000
3241   1.34509673248159E+0000
3242   1.49742203791095E+0000
3243   1.60803790895218E+0000
3244   1.69199884638287E+0000
3245   1.71647058823529E+0000
3246   1.69199884638287E+0000
3247   1.63392026189335E+0000
3248   1.53624556732271E+0000
3249   1.39686143836394E+0000
3250   1.24235294117647E+0000
3251   1.08784444398900E+0000
3252   9.48460315030233E-0001
3253   8.50785620459586E-0001
3254   7.79765859499483E-0001
3255   7.68235294117650E-0001
3256   8.05648212440663E-0001
3257   8.76667973400766E-0001
3258   1.00022502091258E+0000
3259   1.13960914987135E+0000
3260   1.30705882352941E+0000
3261   1.46156732071688E+0000
3262   1.60095144967565E+0000
3263   1.69862614424629E+0000
3264   1.76964590520640E+0000
3265   1.79411764705882E+0000
3266   1.76964590520640E+0000
3267   1.69862614424629E+0000
3268   1.57506909673448E+0000
3269   1.43568496777571E+0000
3270   1.28117647058824E+0000
3271   1.11372679693018E+0000
3272   9.74342667971413E-0001
3273   8.63726796930176E-0001
3274   7.92707035970073E-0001
3275   7.68235294117650E-0001
3276   8.05648212440663E-0001
3277   8.76667973400766E-0001
3278   1.00022502091258E+0000
3279   1.13960914987135E+0000
3280   1.30705882352941E+0000
3281   1.47450849718747E+0000
3282   1.61389262614624E+0000
3283   1.72450849718747E+0000
3284   1.79552825814758E+0000
3285   1.82000000000000E+0000
3286   1.79552825814758E+0000
3287   1.72450849718747E+0000
3288   1.61389262614624E+0000
3289   1.47450849718747E+0000
3290   1.32000000000000E+0000
3291   1.15255032634194E+0000
3292   1.01316619738317E+0000
3293   9.02550326341936E-0001
3294   8.44471741852423E-0001
3295   8.20000000000000E-0001
3296   8.57412918323013E-0001
3297   9.28432679283116E-0001
3298   1.03904855032435E+0000
3299   1.19137385575371E+0000
3300   1.35882352941176E+0000
3301   1.52627320306982E+0000
3302   1.67859850849918E+0000
3303   1.77627320306982E+0000
3304   1.84729296402993E+0000
3305   1.87176470588235E+0000
3306   1.83435178755934E+0000
3307   1.76333202659923E+0000
3308   1.65271615555800E+0000
3309   1.50039085012865E+0000
3310   1.34588235294118E+0000
3311   1.19137385575371E+0000
3312   1.05198972679494E+0000
3313   9.41373855753706E-0001
3314   8.83295271264183E-0001
3315   8.58823529411760E-0001
3316   8.83295271264183E-0001
3317   9.67256208694876E-0001
3318   1.07787207973611E+0000
3319   1.23019738516547E+0000
3320   1.39764705882353E+0000
3321   1.56509673248159E+0000
3322   1.70448086144036E+0000
3323   1.81509673248159E+0000
3324   1.87317531697111E+0000
3325   1.89764705882353E+0000
3326   1.87317531697111E+0000
3327   1.80215555601100E+0000
3328   1.69153968496977E+0000
3329   1.55215555601100E+0000
3330   1.41058823529412E+0000
3331   1.25607973810665E+0000
3332   1.11669560914788E+0000
3333   1.01902091457724E+0000
3334   9.48001153617133E-0001
3335   9.36470588235290E-0001
3336   9.73883506558303E-0001
3337   1.04490326751841E+0000
3338   1.16846031503023E+0000
3339   1.32078562045959E+0000
3340   1.48823529411765E+0000
3341   1.65568496777571E+0000
3342   1.80801027320506E+0000
3343   1.91862614424629E+0000
3344   2.00258708167699E+0000
3345   2.01411764705882E+0000
3346   1.98964590520640E+0000
3347   1.91862614424629E+0000
3348   1.80801027320506E+0000
3349   1.66862614424629E+0000
3350   1.50117647058824E+0000
3351   1.34666797340077E+0000
3352   1.20728384444200E+0000
3353   1.09666797340077E+0000
3354   1.03858938891124E+0000
3355   1.02705882352941E+0000
3356   1.05153056538183E+0000
3357   1.13549150281253E+0000
3358   1.25904855032435E+0000
3359   1.41137385575371E+0000
3360   1.57882352941176E+0000
3361   1.73333202659923E+0000
3362   1.88565733202859E+0000
3363   1.99627320306982E+0000
3364   2.06729296402993E+0000
3365   2.07882352941176E+0000
3366   2.05435178755934E+0000
3367   1.98333202659923E+0000
3368   1.87271615555800E+0000
3369   1.72039085012865E+0000
3370   1.56588235294118E+0000
3371   1.41137385575371E+0000
3372   1.27198972679494E+0000
3373   1.17431503222429E+0000
3374   1.10329527126418E+0000
3375   1.09176470588235E+0000
3376   1.11623644773477E+0000
3377   1.20019738516547E+0000
3378   1.31081325620670E+0000
3379   1.46313856163606E+0000
3380   1.63058823529412E+0000
3381   1.78509673248159E+0000
3382   1.93742203791095E+0000
3383   2.04803790895218E+0000
3384   2.10611649344170E+0000
3385   2.13058823529412E+0000
3386   2.09317531697111E+0000
3387   2.00921437954041E+0000
3388   1.89859850849918E+0000
3389   1.74627320306982E+0000
3390   1.57882352941176E+0000
3391   1.42431503222429E+0000
3392   1.27198972679494E+0000
3393   1.17431503222429E+0000
3394   1.10329527126418E+0000
3395   1.07882352941176E+0000
3396   1.10329527126418E+0000
3397   1.18725620869488E+0000
3398   1.29787207973611E+0000
3399   1.43725620869488E+0000
3400   1.59176470588235E+0000
3401   1.74627320306982E+0000
3402   1.88565733202859E+0000
3403   1.99627320306982E+0000
3404   2.06729296402993E+0000
3405   2.07882352941176E+0000
3406   2.05435178755934E+0000
3407   1.97039085012865E+0000
3408   1.84683380261683E+0000
3409   1.70744967365806E+0000
3410   1.54000000000000E+0000
3411   1.37255032634194E+0000
3412   1.22022502091258E+0000
3413   1.09666797340077E+0000
3414   1.02564821244066E+0000
3415   1.00117647058824E+0000
3416   1.01270703597007E+0000
3417   1.08372679693018E+0000
3418   1.19434266797141E+0000
3419   1.33372679693018E+0000
3420   1.48823529411765E+0000
3421   1.64274379130512E+0000
3422   1.78212792026389E+0000
3423   1.89274379130512E+0000
3424   1.95082237579464E+0000
3425   1.96235294117647E+0000
3426   1.92494002285346E+0000
3427   1.85392026189335E+0000
3428   1.73036321438153E+0000
3429   1.57803790895218E+0000
3430   1.41058823529412E+0000
3431   1.24313856163606E+0000
3432   1.10375443267729E+0000
3433   9.93138561636056E-0001
3434   9.22118800675953E-0001
3435   8.97647058823530E-0001
3436   9.22118800675953E-0001
3437   9.93138561636056E-0001
3438   1.10375443267729E+0000
3439   1.24313856163606E+0000
3440   1.39764705882353E+0000
3441   1.55215555601100E+0000
3442   1.69153968496977E+0000
3443   1.78921437954041E+0000
3444   1.86023414050052E+0000
3445   1.87176470588235E+0000
3446   1.83435178755934E+0000
3447   1.75039085012865E+0000
3448   1.62683380261683E+0000
3449   1.47450849718747E+0000
3450   1.30705882352941E+0000
3451   1.13960914987135E+0000
3452   1.00022502091258E+0000
3453   8.89609149871346E-0001
3454   8.18589388911243E-0001
3455   8.07058823529410E-0001
3456   8.31530565381833E-0001
3457   9.02550326341936E-0001
3458   1.02610737385376E+0000
3459   1.16549150281253E+0000
3460   1.32000000000000E+0000
3461   1.47450849718747E+0000
3462   1.61389262614624E+0000
3463   1.72450849718747E+0000
3464   1.79552825814758E+0000
3465   1.80705882352941E+0000
3466   1.78258708167699E+0000
3467   1.69862614424629E+0000
3468   1.57506909673448E+0000
3469   1.42274379130512E+0000
3470   1.25529411764706E+0000
3471   1.08784444398900E+0000
3472   9.48460315030233E-0001
3473   8.37844443988996E-0001
3474   7.66824683028893E-0001
3475   7.55294117647060E-0001
3476   7.79765859499483E-0001
3477   8.50785620459586E-0001
3478   9.74342667971413E-0001
3479   1.11372679693018E+0000
3480   1.26823529411765E+0000
3481   1.42274379130512E+0000
3482   1.56212792026389E+0000
3483   1.68568496777571E+0000
3484   1.75670472873582E+0000
3485   1.76823529411765E+0000
3486   1.74376355226523E+0000
3487   1.65980261483453E+0000
3488   1.54918674379330E+0000
3489   1.39686143836394E+0000
3490   1.22941176470588E+0000
3491   1.07490326751841E+0000
3492   9.22577962089053E-0001
3493   8.11962091047816E-0001
3494   7.53883506558303E-0001
3495   7.29411764705880E-0001
3496   7.66824683028893E-0001
3497   8.50785620459586E-0001
3498   9.61401491500823E-0001
3499   1.10078562045959E+0000
3500   1.26823529411765E+0000
3501   1.42274379130512E+0000
3502   1.54918674379330E+0000
3503   1.65980261483453E+0000
3504   1.73082237579464E+0000
3505   1.74235294117647E+0000
3506   1.71788119932405E+0000
3507   1.64686143836394E+0000
3508   1.52330439085212E+0000
3509   1.38392026189335E+0000
3510   1.21647058823529E+0000
3511   1.06196209104782E+0000
3512   9.09636785618473E-0001
3513   7.99020914577236E-0001
3514   7.40942330087713E-0001
3515   7.29411764705880E-0001
3516   7.53883506558303E-0001
3517   8.37844443988996E-0001
3518   9.61401491500823E-0001
3519   1.10078562045959E+0000
3520   1.26823529411765E+0000
3521   1.42274379130512E+0000
3522   1.56212792026389E+0000
3523   1.67274379130512E+0000
3524   1.74376355226523E+0000
3525   1.75529411764706E+0000
3526   1.73082237579464E+0000
3527   1.64686143836394E+0000
3528   1.53624556732271E+0000
3529   1.38392026189335E+0000
3530   1.22941176470588E+0000
3531   1.06196209104782E+0000
3532   9.22577962089053E-0001
3533   8.11962091047816E-0001
3534   7.40942330087713E-0001
3535   7.29411764705880E-0001
3536   7.53883506558303E-0001
3537   8.37844443988996E-0001
3538   9.48460315030233E-0001
3539   1.08784444398900E+0000
3540   1.25529411764706E+0000
3541   1.40980261483453E+0000
3542   1.54918674379330E+0000
3543   1.65980261483453E+0000
3544   1.73082237579464E+0000
3545   1.75529411764706E+0000
3546   1.73082237579464E+0000
3547   1.64686143836394E+0000
3548   1.53624556732271E+0000
3549   1.38392026189335E+0000
3550   1.22941176470588E+0000
3551   1.06196209104782E+0000
3552   9.09636785618473E-0001
3553   7.99020914577236E-0001
3554   7.28001153617133E-0001
3555   7.16470588235290E-0001
3556   7.40942330087713E-0001
3557   8.11962091047816E-0001
3558   9.35519138559643E-0001
3559   1.07490326751841E+0000
3560   1.24235294117647E+0000
3561   1.39686143836394E+0000
3562   1.53624556732271E+0000
3563   1.64686143836394E+0000
3564   1.71788119932405E+0000
3565   1.72941176470588E+0000
3566   1.70494002285346E+0000
3567   1.63392026189335E+0000
3568   1.51036321438153E+0000
3569   1.37097908542276E+0000
3570   1.20352941176471E+0000
3571   1.04902091457724E+0000
3572   9.09636785618473E-0001
3573   7.99020914577236E-0001
3574   7.28001153617133E-0001
3575   7.03529411764710E-0001
3576   7.40942330087713E-0001
3577   8.24903267518406E-0001
3578   9.35519138559643E-0001
3579   1.08784444398900E+0000
3580   1.24235294117647E+0000
3581   1.40980261483453E+0000
3582   1.54918674379330E+0000
3583   1.65980261483453E+0000
3584   1.73082237579464E+0000
3585   1.75529411764706E+0000
3586   1.71788119932405E+0000
3587   1.64686143836394E+0000
3588   1.52330439085212E+0000
3589   1.38392026189335E+0000
3590   1.21647058823529E+0000
3591   1.04902091457724E+0000
3592   8.96695609147883E-0001
3593   7.86079738106646E-0001
3594   7.15059977146543E-0001
3595   7.03529411764710E-0001
3596   7.40942330087713E-0001
3597   8.24903267518406E-0001
3598   9.48460315030233E-0001
3599   1.10078562045959E+0000
3600   1.25529411764706E+0000
3601   1.42274379130512E+0000
3602   1.56212792026389E+0000
3603   1.65980261483453E+0000
3604   1.73082237579464E+0000
3605   1.75529411764706E+0000
3606   1.71788119932405E+0000
3607   1.64686143836394E+0000
3608   1.52330439085212E+0000
3609   1.38392026189335E+0000
3610   1.22941176470588E+0000
3611   1.06196209104782E+0000
3612   9.09636785618473E-0001
3613   7.99020914577236E-0001
3614   7.28001153617133E-0001
3615   7.16470588235290E-0001
3616   7.40942330087713E-0001
3617   8.11962091047816E-0001
3618   9.35519138559643E-0001
3619   1.07490326751841E+0000
3620   1.22941176470588E+0000
3621   1.39686143836394E+0000
3622   1.53624556732271E+0000
3623   1.64686143836394E+0000
3624   1.71788119932405E+0000
3625   1.72941176470588E+0000
3626   1.70494002285346E+0000
3627   1.62097908542276E+0000
3628   1.51036321438153E+0000
3629   1.37097908542276E+0000
3630   1.21647058823529E+0000
3631   1.06196209104782E+0000
3632   9.09636785618473E-0001
3633   8.11962091047816E-0001
3634   7.40942330087713E-0001
3635   7.16470588235290E-0001
3636   7.40942330087713E-0001
3637   8.11962091047816E-0001
3638   9.35519138559643E-0001
3639   1.07490326751841E+0000
3640   1.24235294117647E+0000
3641   1.39686143836394E+0000
3642   1.53624556732271E+0000
3643   1.64686143836394E+0000
3644   1.71788119932405E+0000
3645   1.72941176470588E+0000
3646   1.69199884638287E+0000
3647   1.62097908542276E+0000
3648   1.49742203791095E+0000
3649   1.35803790895218E+0000
3650   1.20352941176471E+0000
3651   1.03607973810665E+0000
3652   8.96695609147883E-0001
3653   7.86079738106646E-0001
3654   7.15059977146543E-0001
3655   6.90588235294120E-0001
3656   7.15059977146543E-0001
3657   7.99020914577236E-0001
3658   9.09636785618473E-0001
3659   1.06196209104782E+0000
3660   1.22941176470588E+0000
3661   1.39686143836394E+0000
3662   1.53624556732271E+0000
3663   1.64686143836394E+0000
3664   1.71788119932405E+0000
3665   1.72941176470588E+0000
3666   1.70494002285346E+0000
3667   1.62097908542276E+0000
3668   1.51036321438153E+0000
3669   1.37097908542276E+0000
3670   1.20352941176471E+0000
3671   1.04902091457724E+0000
3672   8.96695609147883E-0001
3673   7.86079738106646E-0001
3674   7.15059977146543E-0001
3675   6.90588235294120E-0001
3676   7.28001153617133E-0001
3677   7.99020914577236E-0001
3678   9.09636785618473E-0001
3679   1.06196209104782E+0000
3680   1.22941176470588E+0000
3681   1.38392026189335E+0000
3682   1.53624556732271E+0000
3683   1.64686143836394E+0000
3684   1.70494002285346E+0000
3685   1.72941176470588E+0000
3686   1.70494002285346E+0000
3687   1.62097908542276E+0000
3688   1.51036321438153E+0000
3689   1.35803790895218E+0000
3690   1.20352941176471E+0000
3691   1.03607973810665E+0000
3692   8.96695609147883E-0001
3693   7.86079738106646E-0001
3694   7.02118800675953E-0001
3695   6.90588235294120E-0001
3696   7.15059977146543E-0001
3697   7.99020914577236E-0001
3698   9.09636785618473E-0001
3699   1.06196209104782E+0000
3700   1.22941176470588E+0000
3701   1.38392026189335E+0000
3702   1.53624556732271E+0000
3703   1.64686143836394E+0000
3704   1.71788119932405E+0000
3705   1.72941176470588E+0000
3706   1.70494002285346E+0000
3707   1.62097908542276E+0000
3708   1.51036321438153E+0000
3709   1.37097908542276E+0000
3710   1.20352941176471E+0000
3711   1.04902091457724E+0000
3712   8.96695609147883E-0001
3713   7.86079738106646E-0001
3714   7.15059977146543E-0001
3715   6.90588235294120E-0001
3716   7.28001153617133E-0001
3717   7.99020914577236E-0001
3718   9.09636785618473E-0001
3719   1.06196209104782E+0000
3720   1.22941176470588E+0000
3721   1.38392026189335E+0000
3722   1.53624556732271E+0000
3723   1.64686143836394E+0000
3724   1.71788119932405E+0000
3725   1.74235294117647E+0000
3726   1.70494002285346E+0000
3727   1.63392026189335E+0000
3728   1.51036321438153E+0000
3729   1.37097908542276E+0000
3730   1.20352941176471E+0000
3731   1.04902091457724E+0000
3732   9.09636785618473E-0001
3733   7.99020914577236E-0001
3734   7.28001153617133E-0001
3735   7.16470588235290E-0001
3736   7.53883506558303E-0001
3737   8.24903267518406E-0001
3738   9.35519138559643E-0001
3739   1.08784444398900E+0000
3740   1.25529411764706E+0000
3741   1.40980261483453E+0000
3742   1.56212792026389E+0000
3743   1.67274379130512E+0000
3744   1.73082237579464E+0000
3745   1.75529411764706E+0000
3746   1.71788119932405E+0000
3747   1.63392026189335E+0000
3748   1.52330439085212E+0000
3749   1.38392026189335E+0000
3750   1.22941176470588E+0000
3751   1.07490326751841E+0000
3752   9.35519138559643E-0001
3753   8.24903267518406E-0001
3754   7.66824683028893E-0001
3755   7.55294117647060E-0001
3756   7.92707035970073E-0001
3757   8.63726796930176E-0001
3758   9.87283844442003E-0001
3759   1.13960914987135E+0000
3760   1.29411764705882E+0000
3761   1.46156732071688E+0000
3762   1.61389262614624E+0000
3763   1.72450849718747E+0000
3764   1.80846943461817E+0000
3765   1.83294117647059E+0000
3766   1.79552825814758E+0000
3767   1.72450849718747E+0000
3768   1.61389262614624E+0000
3769   1.47450849718747E+0000
3770   1.32000000000000E+0000
3771   1.16549150281253E+0000
3772   1.03904855032435E+0000
3773   9.28432679283116E-0001
3774   8.70354094793603E-0001
3775   8.45882352941180E-0001
3776   8.83295271264183E-0001
3777   9.54315032224286E-0001
3778   1.07787207973611E+0000
3779   1.23019738516547E+0000
3780   1.38470588235294E+0000
3781   1.56509673248159E+0000
3782   1.70448086144036E+0000
3783   1.82803790895218E+0000
3784   1.89905766991229E+0000
3785   1.92352941176471E+0000
3786   1.88611649344170E+0000
3787   1.81509673248159E+0000
3788   1.70448086144036E+0000
3789   1.56509673248159E+0000
3790   1.39764705882353E+0000
3791   1.25607973810665E+0000
3792   1.11669560914788E+0000
3793   1.00607973810665E+0000
3794   9.48001153617133E-0001
3795   9.36470588235290E-0001
3796   9.60942330087713E-0001
3797   1.03196209104782E+0000
3798   1.14257796208905E+0000
3799   1.29490326751841E+0000
3800   1.44941176470588E+0000
3801   1.61686143836394E+0000
3802   1.75624556732271E+0000
3803   1.86686143836394E+0000
3804   1.93788119932405E+0000
3805   1.94941176470588E+0000
3806   1.92494002285346E+0000
3807   1.84097908542276E+0000
3808   1.71742203791095E+0000
3809   1.56509673248159E+0000
3810   1.39764705882353E+0000
3811   1.23019738516547E+0000
3812   1.09081325620670E+0000
3813   9.67256208694876E-0001
3814   8.96236447734773E-0001
3815   8.58823529411760E-0001
3816   8.83295271264183E-0001
3817   9.41373855753706E-0001
3818   1.05198972679494E+0000
3819   1.17843267928312E+0000
3820   1.33294117647059E+0000
3821   1.48744967365806E+0000
3822   1.62683380261683E+0000
3823   1.73744967365806E+0000
3824   1.79552825814758E+0000
3825   1.80705882352941E+0000
3826   1.76964590520640E+0000
3827   1.68568496777571E+0000
3828   1.54918674379330E+0000
3829   1.39686143836394E+0000
3830   1.22941176470588E+0000
3831   1.06196209104782E+0000
3832   9.09636785618473E-0001
3833   7.99020914577236E-0001
3834   7.28001153617133E-0001
3835   7.03529411764710E-0001
3836   7.28001153617133E-0001
3837   7.99020914577236E-0001
3838   9.09636785618473E-0001
3839   1.04902091457724E+0000
3840   1.20352941176471E+0000
3841   1.35803790895218E+0000
3842   1.49742203791095E+0000
3843   1.60803790895218E+0000
3844   1.66611649344170E+0000
3845   1.69058823529412E+0000
3846   1.66611649344170E+0000
3847   1.58215555601100E+0000
3848   1.47153968496977E+0000
3849   1.31921437954041E+0000
3850   1.16470588235294E+0000
3851   1.01019738516547E+0000
3852   8.70813256206703E-0001
3853   7.60197385165466E-0001
3854   6.89177624205363E-0001
3855   6.77647058823530E-0001
3856   7.02118800675953E-0001
3857   7.86079738106646E-0001
3858   8.96695609147883E-0001
3859   1.03607973810665E+0000
3860   1.19058823529412E+0000
3861   1.35803790895218E+0000
3862   1.49742203791095E+0000
3863   1.60803790895218E+0000
3864   1.67905766991229E+0000
3865   1.70352941176471E+0000
3866   1.66611649344170E+0000
3867   1.59509673248159E+0000
3868   1.48448086144036E+0000
3869   1.33215555601100E+0000
3870   1.16470588235294E+0000
3871   9.97256208694876E-0001
3872   8.44930903265523E-0001
3873   7.34315032224286E-0001
3874   6.63295271264183E-0001
3875   6.51764705882350E-0001
3876   6.76236447734773E-0001
3877   7.60197385165466E-0001
3878   8.70813256206703E-0001
3879   1.01019738516547E+0000
3880   1.17764705882353E+0000
3881   1.33215555601100E+0000
3882   1.47153968496977E+0000
3883   1.58215555601100E+0000
3884   1.65317531697111E+0000
3885   1.67764705882353E+0000
3886   1.64023414050052E+0000
3887   1.56921437954041E+0000
3888   1.44565733202859E+0000
3889   1.30627320306982E+0000
3890   1.13882352941176E+0000
3891   9.71373855753706E-0001
3892   8.31989726794943E-0001
3893   7.21373855753706E-0001
3894   6.50354094793603E-0001
3895   6.38823529411760E-0001
3896   6.76236447734773E-0001
3897   7.47256208694876E-0001
3898   8.57872079736113E-0001
3899   9.97256208694876E-0001
3900   1.15176470588235E+0000
3901   1.30627320306982E+0000
3902   1.44565733202859E+0000
3903   1.55627320306982E+0000
3904   1.62729296402993E+0000
3905   1.65176470588235E+0000
